MR32 CSV
Name,EMG 1 channel recording 1
Frequency,2000
Date,25-03-2022 10:25:34
"Time,s","VMO RT,uV"
0.0000,4.557
0.0005,-8.871
0.0010,-16.2
0.0015,-15.59
0.0020,-12.23
0.0025,-11.01
0.0030,-13.75
0.0035,-20.16
0.0040,-25.35
0.0045,-23.83
0.0050,-15.28
0.0055,-6.124
0.0060,-2.462
0.0065,-2.462
0.0070,-1.852
0.0075,0.895
0.0080,3.642
0.0085,6.388
0.0090,10.97
0.0095,17.07
0.0100,22.26
0.0105,25.92
0.0110,26.53
0.0115,24.39
0.0120,20.12
0.0125,17.38
0.0130,17.68
0.0135,20.12
0.0140,22.56
0.0145,25.62
0.0150,30.19
0.0155,35.38
0.0160,39.65
0.0165,41.49
0.0170,40.88
0.0175,38.43
0.0180,34.47
0.0185,29.89
0.0190,25.31
0.0195,21.04
0.0200,16.77
0.0205,11.58
0.0210,6.388
0.0215,4.863
0.0220,10.36
0.0225,19.51
0.0230,26.23
0.0235,26.23
0.0240,21.95
0.0245,16.46
0.0250,10.97
0.0255,5.778
0.0260,3.337
0.0265,3.337
0.0270,2.116
0.0275,-2.157
0.0280,-8.261
0.0285,-14.06
0.0290,-20.77
0.0295,-30.85
0.0300,-39.7
0.0305,-42.75
0.0310,-40
0.0315,-37.25
0.0320,-36.64
0.0325,-38.17
0.0330,-40.92
0.0335,-43.97
0.0340,-44.88
0.0345,-42.44
0.0350,-40
0.0355,-40
0.0360,-40.31
0.0365,-36.34
0.0370,-29.93
0.0375,-25.66
0.0380,-25.05
0.0385,-23.83
0.0390,-21.69
0.0395,-20.47
0.0400,-20.16
0.0405,-16.5
0.0410,-9.176
0.0415,-3.073
0.0420,-0.631
0.0425,1.2
0.0430,6.083
0.0435,11.27
0.0440,14.32
0.0445,17.38
0.0450,22.26
0.0455,26.84
0.0460,28.67
0.0465,31.41
0.0470,38.74
0.0475,45.45
0.0480,46.67
0.0485,45.76
0.0490,48.51
0.0495,51.25
0.0500,44.23
0.0505,26.53
0.0510,7.914
0.0515,-4.904
0.0520,-18.03
0.0525,-34.2
0.0530,-46.41
0.0535,-46.72
0.0540,-39.39
0.0545,-35.12
0.0550,-37.25
0.0555,-40
0.0560,-41.22
0.0565,-44.27
0.0570,-51.6
0.0575,-57.7
0.0580,-57.7
0.0585,-51.9
0.0590,-44.88
0.0595,-41.22
0.0600,-40.31
0.0605,-39.09
0.0610,-35.12
0.0615,-28.71
0.0620,-21.69
0.0625,-15.89
0.0630,-12.23
0.0635,-11.92
0.0640,-13.14
0.0645,-12.53
0.0650,-8.566
0.0655,-3.988
0.0660,-2.462
0.0665,-3.988
0.0670,-4.599
0.0675,-2.767
0.0680,-0.02059
0.0685,2.421
0.0690,4.863
0.0695,6.999
0.0700,7.304
0.0705,5.473
0.0710,4.557
0.0715,6.388
0.0720,9.135
0.0725,9.746
0.0730,9.135
0.0735,9.746
0.0740,11.27
0.0745,11.88
0.0750,10.05
0.0755,8.525
0.0760,9.44
0.0765,12.49
0.0770,16.15
0.0775,19.21
0.0780,22.87
0.0785,27.14
0.0790,31.72
0.0795,34.77
0.0800,35.99
0.0805,36.91
0.0810,39.96
0.0815,44.54
0.0820,46.67
0.0825,43.32
0.0830,35.99
0.0835,26.84
0.0840,17.07
0.0845,7.609
0.0850,-0.9362
0.0855,-7.956
0.0860,-14.06
0.0865,-21.69
0.0870,-30.54
0.0875,-38.17
0.0880,-42.14
0.0885,-42.44
0.0890,-40
0.0895,-35.42
0.0900,-28.71
0.0905,-22.6
0.0910,-18.64
0.0915,-15.59
0.0920,-10.7
0.0925,-3.378
0.0930,2.726
0.0935,6.083
0.0940,6.083
0.0945,5.778
0.0950,6.083
0.0955,6.694
0.0960,6.694
0.0965,5.778
0.0970,5.778
0.0975,6.694
0.0980,7.914
0.0985,8.83
0.0990,9.44
0.0995,10.05
0.1000,10.05
0.1005,9.135
0.1010,8.22
0.1015,8.83
0.1020,10.36
0.1025,11.27
0.1030,10.66
0.1035,9.746
0.1040,10.36
0.1045,12.49
0.1050,14.02
0.1055,15.54
0.1060,17.68
0.1065,20.12
0.1070,20.43
0.1075,17.68
0.1080,15.85
0.1085,16.15
0.1090,15.54
0.1095,12.49
0.1100,10.66
0.1105,14.02
0.1110,19.51
0.1115,19.51
0.1120,11.27
0.1125,0.895
0.1130,-4.293
0.1135,-2.767
0.1140,2.116
0.1145,6.694
0.1150,7.609
0.1155,4.252
0.1160,-0.02059
0.1165,-1.852
0.1170,-1.241
0.1175,-0.02059
0.1180,-0.02059
0.1185,-0.631
0.1190,-0.9362
0.1195,-0.631
0.1200,0.5898
0.1205,1.505
0.1210,0.2846
0.1215,-3.073
0.1220,-6.43
0.1225,-7.04
0.1230,-6.43
0.1235,-6.124
0.1240,-7.04
0.1245,-7.04
0.1250,-5.514
0.1255,-2.462
0.1260,0.2846
0.1265,3.642
0.1270,6.999
0.1275,11.27
0.1280,14.93
0.1285,17.38
0.1290,17.38
0.1295,14.93
0.1300,11.88
0.1305,9.746
0.1310,8.83
0.1315,7.914
0.1320,4.863
0.1325,-1.241
0.1330,-9.482
0.1335,-14.98
0.1340,-14.98
0.1345,-11.31
0.1350,-10.09
0.1355,-14.36
0.1360,-21.38
0.1365,-24.44
0.1370,-22.91
0.1375,-18.64
0.1380,-13.45
0.1385,-9.176
0.1390,-6.735
0.1395,-7.65
0.1400,-10.4
0.1405,-11.92
0.1410,-10.4
0.1415,-7.956
0.1420,-4.293
0.1425,0.895
0.1430,6.999
0.1435,10.05
0.1440,7.914
0.1445,4.863
0.1450,6.083
0.1455,11.27
0.1460,16.77
0.1465,18.9
0.1470,17.99
0.1475,13.41
0.1480,4.557
0.1485,-4.599
0.1490,-11.01
0.1495,-12.84
0.1500,-13.14
0.1505,-14.98
0.1510,-17.11
0.1515,-18.03
0.1520,-20.77
0.1525,-28.4
0.1530,-39.09
0.1535,-46.1
0.1540,-43.97
0.1545,-36.03
0.1550,-26.88
0.1555,-19.86
0.1560,-14.36
0.1565,-11.01
0.1570,-11.01
0.1575,-13.75
0.1580,-16.2
0.1585,-16.5
0.1590,-14.98
0.1595,-11.31
0.1600,-5.819
0.1605,-0.3258
0.1610,1.811
0.1615,0.2846
0.1620,-0.631
0.1625,0.895
0.1630,4.557
0.1635,7.304
0.1640,9.44
0.1645,11.88
0.1650,14.32
0.1655,15.24
0.1660,15.24
0.1665,16.15
0.1670,17.99
0.1675,17.38
0.1680,14.63
0.1685,11.88
0.1690,10.97
0.1695,11.27
0.1700,10.66
0.1705,10.66
0.1710,11.88
0.1715,13.41
0.1720,13.1
0.1725,11.27
0.1730,10.05
0.1735,10.05
0.1740,10.36
0.1745,9.135
0.1750,8.22
0.1755,9.135
0.1760,11.27
0.1765,13.1
0.1770,14.63
0.1775,17.07
0.1780,19.51
0.1785,21.04
0.1790,22.87
0.1795,26.23
0.1800,30.5
0.1805,31.41
0.1810,28.97
0.1815,26.84
0.1820,27.45
0.1825,28.36
0.1830,25.92
0.1835,19.51
0.1840,10.36
0.1845,-0.9362
0.1850,-13.75
0.1855,-23.83
0.1860,-26.57
0.1865,-24.13
0.1870,-22.3
0.1875,-22.91
0.1880,-21.99
0.1885,-17.72
0.1890,-13.45
0.1895,-13.14
0.1900,-15.28
0.1905,-15.89
0.1910,-14.36
0.1915,-12.23
0.1920,-9.787
0.1925,-6.43
0.1930,-1.852
0.1935,1.505
0.1940,3.947
0.1945,7.609
0.1950,12.8
0.1955,15.24
0.1960,11.58
0.1965,4.252
0.1970,-1.241
0.1975,-2.157
0.1980,-1.547
0.1985,-2.462
0.1990,-5.209
0.1995,-9.176
0.2000,-13.75
0.2005,-18.03
0.2010,-19.25
0.2015,-17.42
0.2020,-16.2
0.2025,-17.42
0.2030,-18.64
0.2035,-15.28
0.2040,-10.09
0.2045,-7.65
0.2050,-9.482
0.2055,-10.7
0.2060,-7.345
0.2065,-2.157
0.2070,1.2
0.2075,2.726
0.2080,3.642
0.2085,4.557
0.2090,4.557
0.2095,6.083
0.2100,9.135
0.2105,12.19
0.2110,11.88
0.2115,8.22
0.2120,4.557
0.2125,2.726
0.2130,1.505
0.2135,-0.3258
0.2140,-2.157
0.2145,-4.293
0.2150,-7.04
0.2155,-10.4
0.2160,-12.84
0.2165,-11.92
0.2170,-9.176
0.2175,-7.345
0.2180,-5.514
0.2185,-2.462
0.2190,0.2846
0.2195,-1.241
0.2200,-8.261
0.2205,-13.75
0.2210,-11.01
0.2215,-2.462
0.2220,4.863
0.2225,6.999
0.2230,4.863
0.2235,1.505
0.2240,-1.852
0.2245,-3.988
0.2250,-3.683
0.2255,-2.157
0.2260,-3.378
0.2265,-8.871
0.2270,-14.98
0.2275,-16.2
0.2280,-13.45
0.2285,-12.23
0.2290,-15.28
0.2295,-20.16
0.2300,-22.6
0.2305,-20.47
0.2310,-14.67
0.2315,-7.04
0.2320,-0.02059
0.2325,4.252
0.2330,6.694
0.2335,9.44
0.2340,14.93
0.2345,21.65
0.2350,27.45
0.2355,31.72
0.2360,34.47
0.2365,36.3
0.2370,37.82
0.2375,38.43
0.2380,37.52
0.2385,33.55
0.2390,28.36
0.2395,25.62
0.2400,25.92
0.2405,25.62
0.2410,22.26
0.2415,17.38
0.2420,14.02
0.2425,10.97
0.2430,6.083
0.2435,-0.631
0.2440,-7.04
0.2445,-10.4
0.2450,-9.176
0.2455,-3.988
0.2460,1.2
0.2465,4.252
0.2470,3.337
0.2475,0.2846
0.2480,-2.462
0.2485,-4.293
0.2490,-4.293
0.2495,-2.767
0.2500,-3.378
0.2505,-9.176
0.2510,-16.5
0.2515,-19.86
0.2520,-17.72
0.2525,-15.59
0.2530,-18.33
0.2535,-22.91
0.2540,-24.13
0.2545,-21.69
0.2550,-20.47
0.2555,-22.6
0.2560,-24.74
0.2565,-23.22
0.2570,-17.72
0.2575,-11.01
0.2580,-5.514
0.2585,-2.462
0.2590,-1.241
0.2595,-1.547
0.2600,-1.241
0.2605,0.5898
0.2610,4.252
0.2615,6.083
0.2620,3.337
0.2625,-1.547
0.2630,-4.599
0.2635,-3.073
0.2640,0.5898
0.2645,2.726
0.2650,2.726
0.2655,3.947
0.2660,6.999
0.2665,9.135
0.2670,6.083
0.2675,-1.852
0.2680,-9.482
0.2685,-11.01
0.2690,-5.514
0.2695,0.895
0.2700,3.947
0.2705,2.421
0.2710,0.2846
0.2715,-0.02059
0.2720,0.5898
0.2725,1.2
0.2730,1.505
0.2735,2.116
0.2740,1.505
0.2745,-1.241
0.2750,-4.599
0.2755,-6.124
0.2760,-4.293
0.2765,-0.9362
0.2770,2.116
0.2775,4.863
0.2780,6.999
0.2785,8.525
0.2790,8.525
0.2795,8.83
0.2800,10.66
0.2805,13.41
0.2810,16.15
0.2815,19.51
0.2820,23.78
0.2825,26.84
0.2830,24.7
0.2835,17.68
0.2840,10.66
0.2845,6.388
0.2850,3.642
0.2855,-0.02059
0.2860,-3.073
0.2865,-5.209
0.2870,-7.65
0.2875,-11.92
0.2880,-16.81
0.2885,-19.86
0.2890,-21.38
0.2895,-22.6
0.2900,-23.52
0.2905,-22.91
0.2910,-22.3
0.2915,-22.3
0.2920,-21.08
0.2925,-17.72
0.2930,-13.45
0.2935,-11.62
0.2940,-11.31
0.2945,-9.787
0.2950,-6.124
0.2955,-2.767
0.2960,-1.241
0.2965,-0.02059
0.2970,1.811
0.2975,3.337
0.2980,3.947
0.2985,3.642
0.2990,4.252
0.2995,4.863
0.3000,5.778
0.3005,6.388
0.3010,6.083
0.3015,5.473
0.3020,5.473
0.3025,6.999
0.3030,8.83
0.3035,9.135
0.3040,8.22
0.3045,7.609
0.3050,7.304
0.3055,6.999
0.3060,7.304
0.3065,10.05
0.3070,13.71
0.3075,15.24
0.3080,13.71
0.3085,13.1
0.3090,15.24
0.3095,17.99
0.3100,18.29
0.3105,17.07
0.3110,17.68
0.3115,21.95
0.3120,25.92
0.3125,25.31
0.3130,18.9
0.3135,10.97
0.3140,5.168
0.3145,3.031
0.3150,3.642
0.3155,5.168
0.3160,5.168
0.3165,2.116
0.3170,-3.073
0.3175,-8.566
0.3180,-11.62
0.3185,-12.23
0.3190,-12.23
0.3195,-11.31
0.3200,-9.482
0.3205,-8.566
0.3210,-10.4
0.3215,-13.14
0.3220,-13.14
0.3225,-9.176
0.3230,-6.124
0.3235,-8.261
0.3240,-14.36
0.3245,-19.55
0.3250,-20.77
0.3255,-18.33
0.3260,-14.36
0.3265,-10.7
0.3270,-9.176
0.3275,-8.566
0.3280,-7.65
0.3285,-6.124
0.3290,-5.209
0.3295,-5.514
0.3300,-4.599
0.3305,-2.767
0.3310,-3.378
0.3315,-7.65
0.3320,-12.53
0.3325,-12.84
0.3330,-8.261
0.3335,-3.988
0.3340,-3.073
0.3345,-3.683
0.3350,-2.462
0.3355,0.2846
0.3360,2.726
0.3365,3.642
0.3370,3.642
0.3375,3.947
0.3380,4.557
0.3385,4.557
0.3390,4.557
0.3395,4.252
0.3400,3.642
0.3405,2.116
0.3410,0.895
0.3415,1.505
0.3420,3.031
0.3425,4.557
0.3430,4.252
0.3435,3.337
0.3440,2.421
0.3445,2.116
0.3450,2.421
0.3455,3.337
0.3460,3.642
0.3465,2.726
0.3470,0.895
0.3475,0.895
0.3480,3.031
0.3485,5.168
0.3490,5.473
0.3495,4.252
0.3500,3.031
0.3505,3.031
0.3510,2.726
0.3515,2.116
0.3520,1.505
0.3525,1.2
0.3530,1.811
0.3535,1.811
0.3540,0.895
0.3545,0.5898
0.3550,1.811
0.3555,3.947
0.3560,5.473
0.3565,5.778
0.3570,6.694
0.3575,9.746
0.3580,13.71
0.3585,16.46
0.3590,18.29
0.3595,19.82
0.3600,21.34
0.3605,21.34
0.3610,20.73
0.3615,21.04
0.3620,21.95
0.3625,21.95
0.3630,20.73
0.3635,17.07
0.3640,9.135
0.3645,-2.767
0.3650,-14.06
0.3655,-20.47
0.3660,-22.6
0.3665,-26.57
0.3670,-34.2
0.3675,-40
0.3680,-38.17
0.3685,-30.23
0.3690,-22.3
0.3695,-18.03
0.3700,-16.81
0.3705,-16.5
0.3710,-16.5
0.3715,-16.2
0.3720,-14.98
0.3725,-11.62
0.3730,-7.345
0.3735,-4.599
0.3740,-3.683
0.3745,-3.073
0.3750,-1.547
0.3755,-0.02059
0.3760,-0.02059
0.3765,-0.02059
0.3770,2.116
0.3775,5.778
0.3780,8.83
0.3785,10.97
0.3790,14.63
0.3795,19.21
0.3800,22.87
0.3805,25.01
0.3810,28.67
0.3815,35.38
0.3820,43.01
0.3825,48.2
0.3830,50.03
0.3835,48.2
0.3840,40.88
0.3845,27.45
0.3850,13.71
0.3855,5.168
0.3860,2.421
0.3865,-0.631
0.3870,-8.871
0.3875,-21.08
0.3880,-33.9
0.3885,-46.41
0.3890,-58.31
0.3895,-66.55
0.3900,-65.33
0.3905,-55.26
0.3910,-43.97
0.3915,-40.31
0.3920,-44.58
0.3925,-47.94
0.3930,-43.66
0.3935,-33.29
0.3940,-24.13
0.3945,-20.16
0.3950,-19.25
0.3955,-18.03
0.3960,-15.28
0.3965,-10.7
0.3970,-4.293
0.3975,3.337
0.3980,9.746
0.3985,13.1
0.3990,14.02
0.3995,13.71
0.4000,12.8
0.4005,11.27
0.4010,10.05
0.4015,10.97
0.4020,12.19
0.4025,11.27
0.4030,8.22
0.4035,5.778
0.4040,6.388
0.4045,7.914
0.4050,8.525
0.4055,8.525
0.4060,9.135
0.4065,10.97
0.4070,11.88
0.4075,11.27
0.4080,9.746
0.4085,9.746
0.4090,10.66
0.4095,11.58
0.4100,12.19
0.4105,12.19
0.4110,12.19
0.4115,11.58
0.4120,10.66
0.4125,10.36
0.4130,10.36
0.4135,9.746
0.4140,8.525
0.4145,7.609
0.4150,7.914
0.4155,8.22
0.4160,7.914
0.4165,7.304
0.4170,6.694
0.4175,6.999
0.4180,6.999
0.4185,6.388
0.4190,5.473
0.4195,4.863
0.4200,5.168
0.4205,6.694
0.4210,7.914
0.4215,9.44
0.4220,11.58
0.4225,13.41
0.4230,13.71
0.4235,12.8
0.4240,13.1
0.4245,14.63
0.4250,15.24
0.4255,12.8
0.4260,6.694
0.4265,-1.241
0.4270,-9.482
0.4275,-14.67
0.4280,-15.28
0.4285,-12.53
0.4290,-9.176
0.4295,-7.04
0.4300,-5.514
0.4305,-5.209
0.4310,-7.345
0.4315,-11.01
0.4320,-11.62
0.4325,-8.566
0.4330,-5.819
0.4335,-5.514
0.4340,-5.819
0.4345,-3.683
0.4350,-0.3258
0.4355,1.2
0.4360,0.5898
0.4365,-0.3258
0.4370,-1.852
0.4375,-3.683
0.4380,-5.209
0.4385,-5.819
0.4390,-5.514
0.4395,-5.209
0.4400,-3.988
0.4405,-2.157
0.4410,-1.241
0.4415,-1.852
0.4420,-2.462
0.4425,-1.547
0.4430,-0.631
0.4435,-0.9362
0.4440,-1.852
0.4445,-1.852
0.4450,-1.547
0.4455,-1.241
0.4460,-0.02059
0.4465,3.337
0.4470,8.22
0.4475,13.41
0.4480,18.9
0.4485,25.31
0.4490,30.19
0.4495,32.33
0.4500,33.55
0.4505,35.99
0.4510,37.21
0.4515,33.55
0.4520,25.62
0.4525,17.68
0.4530,11.58
0.4535,4.863
0.4540,-4.293
0.4545,-16.2
0.4550,-28.4
0.4555,-39.7
0.4560,-48.24
0.4565,-51.29
0.4570,-47.94
0.4575,-41.53
0.4580,-37.86
0.4585,-38.48
0.4590,-40.92
0.4595,-40.31
0.4600,-36.03
0.4605,-30.23
0.4610,-25.35
0.4615,-21.38
0.4620,-16.5
0.4625,-10.7
0.4630,-5.819
0.4635,-3.073
0.4640,-1.852
0.4645,-0.02059
0.4650,2.421
0.4655,4.863
0.4660,5.473
0.4665,4.557
0.4670,3.031
0.4675,2.421
0.4680,2.726
0.4685,2.726
0.4690,2.116
0.4695,0.895
0.4700,1.2
0.4705,2.116
0.4710,2.726
0.4715,1.811
0.4720,1.505
0.4725,2.726
0.4730,4.557
0.4735,5.473
0.4740,5.473
0.4745,5.778
0.4750,6.388
0.4755,5.778
0.4760,4.863
0.4765,5.168
0.4770,6.694
0.4775,7.609
0.4780,6.999
0.4785,6.083
0.4790,6.388
0.4795,6.694
0.4800,6.083
0.4805,5.473
0.4810,5.168
0.4815,5.778
0.4820,6.388
0.4825,6.694
0.4830,6.999
0.4835,6.999
0.4840,6.999
0.4845,7.304
0.4850,7.914
0.4855,7.914
0.4860,8.22
0.4865,8.22
0.4870,7.914
0.4875,7.609
0.4880,7.914
0.4885,9.44
0.4890,10.66
0.4895,10.05
0.4900,7.914
0.4905,5.473
0.4910,2.726
0.4915,0.895
0.4920,0.5898
0.4925,1.2
0.4930,0.5898
0.4935,-1.547
0.4940,-4.599
0.4945,-4.904
0.4950,-2.462
0.4955,0.2846
0.4960,2.726
0.4965,4.252
0.4970,3.947
0.4975,1.811
0.4980,0.5898
0.4985,2.421
0.4990,5.778
0.4995,6.388
0.5000,3.031
0.5005,0.5898
0.5010,1.811
0.5015,5.168
0.5020,5.473
0.5025,2.726
0.5030,-1.241
0.5035,-3.988
0.5040,-4.904
0.5045,-5.819
0.5050,-7.65
0.5055,-10.4
0.5060,-11.62
0.5065,-10.09
0.5070,-7.04
0.5075,-5.209
0.5080,-3.988
0.5085,-2.462
0.5090,-2.462
0.5095,-4.293
0.5100,-5.819
0.5105,-3.988
0.5110,-0.02059
0.5115,1.811
0.5120,0.5898
0.5125,-0.3258
0.5130,0.5898
0.5135,3.337
0.5140,4.863
0.5145,5.168
0.5150,5.473
0.5155,6.083
0.5160,6.694
0.5165,8.525
0.5170,10.66
0.5175,12.19
0.5180,11.88
0.5185,10.36
0.5190,7.914
0.5195,4.252
0.5200,0.2846
0.5205,-0.9362
0.5210,-0.02059
0.5215,1.505
0.5220,1.811
0.5225,0.5898
0.5230,-1.852
0.5235,-5.819
0.5240,-11.01
0.5245,-15.28
0.5250,-17.42
0.5255,-18.94
0.5260,-19.86
0.5265,-19.55
0.5270,-17.11
0.5275,-14.36
0.5280,-12.53
0.5285,-11.31
0.5290,-8.566
0.5295,-5.514
0.5300,-3.378
0.5305,-2.462
0.5310,-2.157
0.5315,-1.852
0.5320,-1.852
0.5325,-1.241
0.5330,-0.3258
0.5335,-0.02059
0.5340,-0.02059
0.5345,0.2846
0.5350,1.505
0.5355,2.116
0.5360,1.2
0.5365,0.2846
0.5370,2.116
0.5375,5.168
0.5380,7.304
0.5385,7.609
0.5390,7.304
0.5395,8.22
0.5400,8.83
0.5405,6.999
0.5410,4.252
0.5415,2.421
0.5420,2.421
0.5425,3.337
0.5430,2.726
0.5435,1.505
0.5440,0.895
0.5445,1.505
0.5450,3.031
0.5455,3.642
0.5460,2.116
0.5465,0.2846
0.5470,0.2846
0.5475,1.505
0.5480,2.116
0.5485,1.2
0.5490,-0.02059
0.5495,-0.02059
0.5500,0.5898
0.5505,0.2846
0.5510,-0.9362
0.5515,-1.852
0.5520,-1.241
0.5525,-0.02059
0.5530,-0.02059
0.5535,-0.02059
0.5540,-0.3258
0.5545,-0.02059
0.5550,0.2846
0.5555,0.5898
0.5560,0.2846
0.5565,-0.3258
0.5570,-0.9362
0.5575,-0.631
0.5580,0.2846
0.5585,1.505
0.5590,1.811
0.5595,1.2
0.5600,0.2846
0.5605,-0.02059
0.5610,0.5898
0.5615,0.895
0.5620,-0.02059
0.5625,-0.9362
0.5630,-0.9362
0.5635,0.2846
0.5640,1.505
0.5645,1.2
0.5650,-0.02059
0.5655,-0.02059
0.5660,-0.02059
0.5665,-1.241
0.5670,-2.767
0.5675,-3.073
0.5680,-2.462
0.5685,-2.157
0.5690,-3.378
0.5695,-4.293
0.5700,-3.683
0.5705,-2.157
0.5710,-1.241
0.5715,-0.9362
0.5720,-0.9362
0.5725,-0.9362
0.5730,-1.547
0.5735,-1.852
0.5740,-1.241
0.5745,-0.3258
0.5750,-0.02059
0.5755,-0.3258
0.5760,-0.3258
0.5765,-0.3258
0.5770,-0.631
0.5775,-1.547
0.5780,-2.157
0.5785,-1.241
0.5790,-0.3258
0.5795,-0.3258
0.5800,-0.631
0.5805,-0.9362
0.5810,-0.631
0.5815,-0.02059
0.5820,0.2846
0.5825,0.895
0.5830,0.895
0.5835,-0.02059
0.5840,-1.241
0.5845,-0.9362
0.5850,0.5898
0.5855,2.726
0.5860,3.642
0.5865,3.337
0.5870,2.421
0.5875,2.421
0.5880,3.642
0.5885,4.557
0.5890,5.168
0.5895,4.557
0.5900,3.947
0.5905,3.337
0.5910,3.337
0.5915,2.726
0.5920,1.2
0.5925,-0.02059
0.5930,-0.3258
0.5935,0.5898
0.5940,0.895
0.5945,-0.02059
0.5950,-0.631
0.5955,-0.9362
0.5960,-0.9362
0.5965,-2.462
0.5970,-4.599
0.5975,-5.209
0.5980,-4.904
0.5985,-4.293
0.5990,-4.293
0.5995,-3.988
0.6000,-2.462
0.6005,-0.9362
0.6010,-0.02059
0.6015,-0.02059
0.6020,-0.631
0.6025,-0.631
0.6030,-0.02059
0.6035,-0.02059
0.6040,-0.631
0.6045,-1.852
0.6050,-2.462
0.6055,-1.547
0.6060,-0.9362
0.6065,-1.241
0.6070,-1.547
0.6075,-0.9362
0.6080,-0.02059
0.6085,0.2846
0.6090,0.2846
0.6095,0.895
0.6100,1.505
0.6105,0.895
0.6110,-0.02059
0.6115,-0.3258
0.6120,-0.02059
0.6125,0.2846
0.6130,-0.02059
0.6135,-0.02059
0.6140,0.2846
0.6145,0.2846
0.6150,-0.3258
0.6155,-0.9362
0.6160,-0.02059
0.6165,1.2
0.6170,1.2
0.6175,-0.02059
0.6180,-0.631
0.6185,-0.631
0.6190,-0.02059
0.6195,0.2846
0.6200,-0.02059
0.6205,-0.3258
0.6210,-0.02059
0.6215,-0.02059
0.6220,-0.631
0.6225,-0.631
0.6230,0.2846
0.6235,1.505
0.6240,1.2
0.6245,-0.02059
0.6250,-0.631
0.6255,-0.3258
0.6260,-0.02059
0.6265,-0.3258
0.6270,-0.631
0.6275,-0.3258
0.6280,-0.02059
0.6285,-0.3258
0.6290,-0.9362
0.6295,-0.9362
0.6300,-0.631
0.6305,-0.02059
0.6310,0.2846
0.6315,-0.02059
0.6320,-0.9362
0.6325,-1.852
0.6330,-2.462
0.6335,-2.157
0.6340,-1.852
0.6345,-1.852
0.6350,-1.547
0.6355,-0.9362
0.6360,-0.631
0.6365,-0.3258
0.6370,0.2846
0.6375,1.505
0.6380,2.116
0.6385,1.505
0.6390,0.895
0.6395,0.2846
0.6400,-0.02059
0.6405,-0.02059
0.6410,0.5898
0.6415,2.116
0.6420,2.421
0.6425,1.2
0.6430,-0.02059
0.6435,-0.02059
0.6440,0.2846
0.6445,0.5898
0.6450,-0.02059
0.6455,-0.631
0.6460,-0.9362
0.6465,-0.02059
0.6470,0.895
0.6475,1.505
0.6480,1.2
0.6485,0.2846
0.6490,-0.02059
0.6495,-0.02059
0.6500,-0.02059
0.6505,0.2846
0.6510,0.2846
0.6515,0.2846
0.6520,0.2846
0.6525,0.5898
0.6530,1.2
0.6535,2.116
0.6540,2.726
0.6545,3.031
0.6550,3.031
0.6555,3.337
0.6560,3.947
0.6565,2.726
0.6570,0.5898
0.6575,-0.631
0.6580,-0.3258
0.6585,-0.02059
0.6590,-0.9362
0.6595,-1.852
0.6600,-1.241
0.6605,-0.02059
0.6610,-0.3258
0.6615,-1.852
0.6620,-2.157
0.6625,-1.241
0.6630,-0.631
0.6635,-0.9362
0.6640,-0.3258
0.6645,0.5898
0.6650,0.5898
0.6655,-0.02059
0.6660,-0.02059
0.6665,0.895
0.6670,0.895
0.6675,0.2846
0.6680,-0.02059
0.6685,0.2846
0.6690,-0.02059
0.6695,-0.9362
0.6700,-0.631
0.6705,1.2
0.6710,2.116
0.6715,0.2846
0.6720,-1.547
0.6725,-1.241
0.6730,0.895
0.6735,2.421
0.6740,2.726
0.6745,2.421
0.6750,2.116
0.6755,1.505
0.6760,0.2846
0.6765,-0.02059
0.6770,-0.02059
0.6775,0.2846
0.6780,-0.02059
0.6785,0.2846
0.6790,0.895
0.6795,0.5898
0.6800,-0.3258
0.6805,-1.547
0.6810,-1.547
0.6815,-0.3258
0.6820,0.895
0.6825,1.811
0.6830,2.116
0.6835,1.811
0.6840,1.2
0.6845,0.2846
0.6850,0.2846
0.6855,0.895
0.6860,1.505
0.6865,0.895
0.6870,-0.02059
0.6875,-0.631
0.6880,-0.02059
0.6885,0.895
0.6890,1.2
0.6895,0.895
0.6900,0.2846
0.6905,-0.02059
0.6910,-0.02059
0.6915,-0.631
0.6920,-1.241
0.6925,-1.241
0.6930,-0.631
0.6935,-0.02059
0.6940,-0.02059
0.6945,-0.02059
0.6950,-0.02059
0.6955,0.2846
0.6960,0.5898
0.6965,1.505
0.6970,2.116
0.6975,2.116
0.6980,0.895
0.6985,-0.02059
0.6990,-0.02059
0.6995,0.2846
0.7000,-0.3258
0.7005,-0.631
0.7010,-0.3258
0.7015,-0.02059
0.7020,-0.02059
0.7025,-0.3258
0.7030,-0.02059
0.7035,-0.02059
0.7040,-1.547
0.7045,-3.073
0.7050,-2.462
0.7055,-0.02059
0.7060,0.5898
0.7065,-0.3258
0.7070,-1.547
0.7075,-1.241
0.7080,-0.9362
0.7085,-1.547
0.7090,-1.547
0.7095,-0.02059
0.7100,0.5898
0.7105,0.2846
0.7110,-0.02059
0.7115,-0.02059
0.7120,-0.02059
0.7125,-0.3258
0.7130,-0.631
0.7135,-0.02059
0.7140,0.2846
0.7145,-0.02059
0.7150,-0.631
0.7155,-0.3258
0.7160,0.2846
0.7165,0.2846
0.7170,-0.02059
0.7175,-0.631
0.7180,-0.3258
0.7185,-0.02059
0.7190,0.895
0.7195,1.505
0.7200,1.2
0.7205,-0.02059
0.7210,-0.631
0.7215,-0.02059
0.7220,0.2846
0.7225,-0.9362
0.7230,-2.462
0.7235,-1.852
0.7240,-0.631
0.7245,-0.631
0.7250,-1.241
0.7255,-0.9362
0.7260,0.5898
0.7265,1.505
0.7270,1.505
0.7275,1.2
0.7280,0.895
0.7285,0.895
0.7290,0.2846
0.7295,0.2846
0.7300,0.5898
0.7305,0.895
0.7310,0.5898
0.7315,0.2846
0.7320,0.2846
0.7325,0.2846
0.7330,-0.02059
0.7335,-0.02059
0.7340,0.895
0.7345,1.811
0.7350,1.505
0.7355,0.2846
0.7360,-0.02059
0.7365,-0.02059
0.7370,1.2
0.7375,2.116
0.7380,1.811
0.7385,-0.02059
0.7390,-1.547
0.7395,-1.852
0.7400,-0.02059
0.7405,0.895
0.7410,0.5898
0.7415,-0.02059
0.7420,-0.3258
0.7425,-0.02059
0.7430,0.2846
0.7435,-0.02059
0.7440,-0.02059
0.7445,-0.631
0.7450,-1.547
0.7455,-2.462
0.7460,-2.767
0.7465,-2.157
0.7470,-1.547
0.7475,-1.852
0.7480,-2.462
0.7485,-3.073
0.7490,-2.767
0.7495,-2.767
0.7500,-3.073
0.7505,-2.767
0.7510,-1.852
0.7515,-1.241
0.7520,-0.9362
0.7525,-1.547
0.7530,-1.547
0.7535,-1.241
0.7540,-0.9362
0.7545,-1.241
0.7550,-1.547
0.7555,-1.241
0.7560,-0.631
0.7565,-0.9362
0.7570,-1.852
0.7575,-1.852
0.7580,-1.547
0.7585,-1.547
0.7590,-2.462
0.7595,-2.462
0.7600,-1.241
0.7605,-0.02059
0.7610,0.2846
0.7615,0.2846
0.7620,0.2846
0.7625,1.2
0.7630,1.505
0.7635,0.895
0.7640,0.2846
0.7645,0.2846
0.7650,0.895
0.7655,1.2
0.7660,1.505
0.7665,1.2
0.7670,1.2
0.7675,0.895
0.7680,0.895
0.7685,0.5898
0.7690,-0.02059
0.7695,-0.3258
0.7700,-0.02059
0.7705,0.2846
0.7710,0.2846
0.7715,-0.02059
0.7720,-1.241
0.7725,-1.547
0.7730,-1.547
0.7735,-1.852
0.7740,-1.852
0.7745,-1.852
0.7750,-1.547
0.7755,-1.547
0.7760,-1.547
0.7765,-0.631
0.7770,0.2846
0.7775,0.5898
0.7780,-0.3258
0.7785,-1.241
0.7790,-0.9362
0.7795,-0.02059
0.7800,-0.3258
0.7805,-0.631
0.7810,-0.02059
0.7815,0.5898
0.7820,0.5898
0.7825,-0.02059
0.7830,-0.3258
0.7835,0.2846
0.7840,0.5898
0.7845,-0.02059
0.7850,-0.9362
0.7855,-0.631
0.7860,-0.02059
0.7865,0.2846
0.7870,0.2846
0.7875,0.2846
0.7880,1.2
0.7885,1.505
0.7890,0.895
0.7895,0.5898
0.7900,0.5898
0.7905,1.505
0.7910,1.505
0.7915,0.5898
0.7920,-0.3258
0.7925,-0.9362
0.7930,-0.3258
0.7935,0.5898
0.7940,1.505
0.7945,1.505
0.7950,1.2
0.7955,0.895
0.7960,-0.02059
0.7965,-0.9362
0.7970,-0.631
0.7975,0.5898
0.7980,1.505
0.7985,1.505
0.7990,0.895
0.7995,1.2
0.8000,1.811
0.8005,1.505
0.8010,0.5898
0.8015,0.5898
0.8020,1.505
0.8025,1.811
0.8030,1.2
0.8035,0.5898
0.8040,0.5898
0.8045,0.5898
0.8050,0.2846
0.8055,-0.02059
0.8060,-0.02059
0.8065,-0.02059
0.8070,-0.02059
0.8075,-0.02059
0.8080,0.5898
0.8085,0.5898
0.8090,0.2846
0.8095,-0.02059
0.8100,-0.02059
0.8105,-0.02059
0.8110,-0.02059
0.8115,-0.02059
0.8120,0.2846
0.8125,0.2846
0.8130,-0.3258
0.8135,-0.3258
0.8140,0.5898
0.8145,1.811
0.8150,2.116
0.8155,1.2
0.8160,0.895
0.8165,0.895
0.8170,0.5898
0.8175,0.5898
0.8180,0.895
0.8185,1.2
0.8190,0.2846
0.8195,-0.3258
0.8200,-0.9362
0.8205,-0.9362
0.8210,-0.9362
0.8215,-0.3258
0.8220,-0.02059
0.8225,0.5898
0.8230,-0.02059
0.8235,-0.631
0.8240,-0.631
0.8245,-0.02059
0.8250,0.2846
0.8255,-0.02059
0.8260,-0.631
0.8265,-0.02059
0.8270,1.2
0.8275,1.2
0.8280,0.2846
0.8285,-0.02059
0.8290,1.2
0.8295,2.116
0.8300,1.505
0.8305,-0.02059
0.8310,-0.3258
0.8315,-0.02059
0.8320,1.2
0.8325,1.2
0.8330,0.5898
0.8335,-0.02059
0.8340,-0.631
0.8345,-1.241
0.8350,-1.241
0.8355,-0.3258
0.8360,0.5898
0.8365,1.2
0.8370,0.895
0.8375,0.2846
0.8380,-0.3258
0.8385,-1.547
0.8390,-1.852
0.8395,-0.9362
0.8400,-0.02059
0.8405,0.5898
0.8410,0.2846
0.8415,-0.02059
0.8420,-0.02059
0.8425,0.5898
0.8430,1.505
0.8435,1.505
0.8440,0.895
0.8445,-0.02059
0.8450,-0.02059
0.8455,0.2846
0.8460,-0.02059
0.8465,-0.9362
0.8470,-0.9362
0.8475,-0.02059
0.8480,0.5898
0.8485,-0.02059
0.8490,-1.241
0.8495,-1.547
0.8500,-1.241
0.8505,-0.9362
0.8510,-0.631
0.8515,-0.3258
0.8520,-0.3258
0.8525,-0.631
0.8530,-0.9362
0.8535,-0.9362
0.8540,-0.631
0.8545,-0.9362
0.8550,-1.241
0.8555,-1.547
0.8560,-0.9362
0.8565,-0.02059
0.8570,0.2846
0.8575,-0.02059
0.8580,-0.02059
0.8585,-0.02059
0.8590,-0.631
0.8595,-2.157
0.8600,-2.767
0.8605,-1.547
0.8610,-0.02059
0.8615,0.2846
0.8620,-0.02059
0.8625,-0.9362
0.8630,-0.631
0.8635,-0.3258
0.8640,-0.631
0.8645,-1.547
0.8650,-1.547
0.8655,-0.9362
0.8660,-0.631
0.8665,-0.9362
0.8670,-0.9362
0.8675,-0.02059
0.8680,0.5898
0.8685,0.895
0.8690,0.2846
0.8695,-0.02059
0.8700,-0.631
0.8705,-0.9362
0.8710,-0.9362
0.8715,-0.3258
0.8720,0.2846
0.8725,0.5898
0.8730,0.2846
0.8735,-0.02059
0.8740,-0.3258
0.8745,-0.3258
0.8750,0.5898
0.8755,1.811
0.8760,1.811
0.8765,0.5898
0.8770,-0.02059
0.8775,-0.02059
0.8780,0.2846
0.8785,0.5898
0.8790,0.5898
0.8795,0.5898
0.8800,0.2846
0.8805,0.2846
0.8810,0.895
0.8815,2.116
0.8820,2.421
0.8825,1.505
0.8830,0.5898
0.8835,1.2
0.8840,2.421
0.8845,2.726
0.8850,1.811
0.8855,0.5898
0.8860,0.2846
0.8865,0.2846
0.8870,0.2846
0.8875,-0.02059
0.8880,-1.241
0.8885,-2.462
0.8890,-3.073
0.8895,-2.462
0.8900,-0.9362
0.8905,0.2846
0.8910,0.2846
0.8915,-0.02059
0.8920,-0.631
0.8925,-0.02059
0.8930,1.2
0.8935,1.505
0.8940,0.5898
0.8945,-0.3258
0.8950,-0.631
0.8955,-0.3258
0.8960,-0.02059
0.8965,-0.02059
0.8970,-0.02059
0.8975,-0.3258
0.8980,-0.3258
0.8985,-0.02059
0.8990,0.5898
0.8995,0.895
0.9000,0.895
0.9005,0.5898
0.9010,0.5898
0.9015,0.2846
0.9020,-0.3258
0.9025,-1.241
0.9030,-2.157
0.9035,-2.157
0.9040,-1.547
0.9045,-0.631
0.9050,-0.3258
0.9055,-0.631
0.9060,-0.9362
0.9065,-1.241
0.9070,-1.241
0.9075,-1.547
0.9080,-1.547
0.9085,-1.241
0.9090,-1.241
0.9095,-2.157
0.9100,-3.073
0.9105,-3.378
0.9110,-2.462
0.9115,-1.547
0.9120,-0.631
0.9125,-0.02059
0.9130,-0.02059
0.9135,-0.631
0.9140,-1.241
0.9145,-0.9362
0.9150,-0.02059
0.9155,-0.3258
0.9160,-1.852
0.9165,-3.073
0.9170,-3.073
0.9175,-1.852
0.9180,-0.9362
0.9185,-0.9362
0.9190,-0.9362
0.9195,-0.9362
0.9200,-1.241
0.9205,-1.547
0.9210,-1.241
0.9215,-0.3258
0.9220,0.2846
0.9225,0.895
0.9230,0.5898
0.9235,-0.02059
0.9240,-0.3258
0.9245,-0.02059
0.9250,0.2846
0.9255,0.5898
0.9260,1.505
0.9265,2.726
0.9270,3.031
0.9275,1.811
0.9280,-0.02059
0.9285,-0.3258
0.9290,-0.02059
0.9295,1.505
0.9300,2.421
0.9305,2.421
0.9310,1.505
0.9315,0.5898
0.9320,0.2846
0.9325,0.2846
0.9330,0.895
0.9335,1.505
0.9340,2.116
0.9345,1.811
0.9350,1.2
0.9355,0.5898
0.9360,1.2
0.9365,1.811
0.9370,1.505
0.9375,0.2846
0.9380,-0.02059
0.9385,0.2846
0.9390,0.5898
0.9395,0.2846
0.9400,0.2846
0.9405,2.116
0.9410,3.947
0.9415,4.252
0.9420,2.421
0.9425,-0.02059
0.9430,-0.02059
0.9435,1.2
0.9440,2.421
0.9445,2.116
0.9450,0.895
0.9455,-0.02059
0.9460,-0.02059
0.9465,-0.02059
0.9470,-1.852
0.9475,-3.378
0.9480,-3.988
0.9485,-3.988
0.9490,-4.293
0.9495,-4.293
0.9500,-2.767
0.9505,-0.9362
0.9510,-0.631
0.9515,-2.462
0.9520,-3.683
0.9525,-2.462
0.9530,-0.3258
0.9535,0.2846
0.9540,-0.02059
0.9545,-0.02059
0.9550,1.2
0.9555,3.031
0.9560,2.421
0.9565,0.5898
0.9570,-0.02059
0.9575,-0.02059
0.9580,0.2846
0.9585,-0.02059
0.9590,-0.631
0.9595,-0.3258
0.9600,0.5898
0.9605,1.2
0.9610,0.2846
0.9615,-1.241
0.9620,-1.547
0.9625,-0.3258
0.9630,0.5898
0.9635,0.2846
0.9640,-0.02059
0.9645,-0.02059
0.9650,0.5898
0.9655,1.505
0.9660,1.2
0.9665,1.2
0.9670,1.2
0.9675,1.2
0.9680,0.895
0.9685,0.895
0.9690,1.811
0.9695,2.726
0.9700,2.726
0.9705,1.811
0.9710,1.2
0.9715,0.5898
0.9720,0.895
0.9725,2.116
0.9730,3.031
0.9735,3.337
0.9740,2.421
0.9745,2.421
0.9750,3.642
0.9755,4.863
0.9760,3.642
0.9765,1.811
0.9770,1.811
0.9775,4.252
0.9780,5.473
0.9785,4.252
0.9790,3.031
0.9795,3.947
0.9800,4.557
0.9805,2.726
0.9810,0.5898
0.9815,-0.02059
0.9820,0.895
0.9825,0.5898
0.9830,-1.241
0.9835,-2.157
0.9840,-1.547
0.9845,-0.631
0.9850,-1.241
0.9855,-1.852
0.9860,-2.462
0.9865,-3.378
0.9870,-4.293
0.9875,-3.378
0.9880,-1.547
0.9885,-0.631
0.9890,-1.547
0.9895,-3.073
0.9900,-3.378
0.9905,-2.767
0.9910,-1.852
0.9915,-1.241
0.9920,-0.631
0.9925,-0.3258
0.9930,0.5898
0.9935,1.505
0.9940,-0.02059
0.9945,-3.683
0.9950,-7.345
0.9955,-7.65
0.9960,-4.904
0.9965,-3.378
0.9970,-3.683
0.9975,-3.683
0.9980,-1.852
0.9985,0.2846
0.9990,1.505
0.9995,2.116
1.0000,2.116
1.0005,1.811
1.0010,1.811
1.0015,2.726
1.0020,3.947
1.0025,3.642
1.0030,2.421
1.0035,2.116
1.0040,2.421
1.0045,1.811
1.0050,0.2846
1.0055,-0.02059
1.0060,0.2846
1.0065,0.5898
1.0070,-0.02059
1.0075,-0.3258
1.0080,-0.02059
1.0085,0.5898
1.0090,0.2846
1.0095,0.5898
1.0100,1.2
1.0105,0.895
1.0110,-0.02059
1.0115,-1.547
1.0120,-2.462
1.0125,-2.767
1.0130,-2.767
1.0135,-1.852
1.0140,-0.9362
1.0145,-1.852
1.0150,-4.599
1.0155,-6.124
1.0160,-5.819
1.0165,-4.599
1.0170,-4.293
1.0175,-4.293
1.0180,-3.683
1.0185,-2.157
1.0190,-0.631
1.0195,-0.3258
1.0200,-0.9362
1.0205,-1.547
1.0210,-0.9362
1.0215,-0.02059
1.0220,-0.02059
1.0225,-0.3258
1.0230,-0.02059
1.0235,0.895
1.0240,1.505
1.0245,0.895
1.0250,0.2846
1.0255,0.2846
1.0260,0.5898
1.0265,0.2846
1.0270,-0.02059
1.0275,0.895
1.0280,2.421
1.0285,2.116
1.0290,1.2
1.0295,0.895
1.0300,1.811
1.0305,2.726
1.0310,2.421
1.0315,1.505
1.0320,0.895
1.0325,0.5898
1.0330,0.2846
1.0335,0.2846
1.0340,0.5898
1.0345,1.505
1.0350,2.116
1.0355,1.811
1.0360,-0.02059
1.0365,-1.241
1.0370,-1.241
1.0375,0.2846
1.0380,2.421
1.0385,3.031
1.0390,1.2
1.0395,-0.631
1.0400,-1.241
1.0405,-0.02059
1.0410,0.895
1.0415,-0.02059
1.0420,-1.547
1.0425,-3.378
1.0430,-4.599
1.0435,-6.43
1.0440,-8.261
1.0445,-8.261
1.0450,-6.43
1.0455,-3.683
1.0460,-1.241
1.0465,0.2846
1.0470,0.5898
1.0475,-1.241
1.0480,-3.378
1.0485,-3.683
1.0490,-2.157
1.0495,-0.9362
1.0500,-0.631
1.0505,-0.02059
1.0510,1.505
1.0515,3.031
1.0520,3.642
1.0525,3.947
1.0530,3.947
1.0535,3.337
1.0540,1.505
1.0545,0.2846
1.0550,0.5898
1.0555,0.895
1.0560,0.2846
1.0565,-0.3258
1.0570,-0.631
1.0575,-0.3258
1.0580,-0.3258
1.0585,-0.02059
1.0590,0.5898
1.0595,1.505
1.0600,1.811
1.0605,2.421
1.0610,3.642
1.0615,5.168
1.0620,5.473
1.0625,5.473
1.0630,5.778
1.0635,5.778
1.0640,5.168
1.0645,4.863
1.0650,5.473
1.0655,5.778
1.0660,5.168
1.0665,3.642
1.0670,2.726
1.0675,3.337
1.0680,5.168
1.0685,6.694
1.0690,5.778
1.0695,2.421
1.0700,-0.02059
1.0705,-0.3258
1.0710,-0.02059
1.0715,-0.9362
1.0720,-2.462
1.0725,-2.157
1.0730,-2.767
1.0735,-6.43
1.0740,-10.4
1.0745,-10.4
1.0750,-6.124
1.0755,-3.378
1.0760,-2.767
1.0765,-2.157
1.0770,-0.3258
1.0775,-0.3258
1.0780,-2.767
1.0785,-3.683
1.0790,-1.547
1.0795,-0.02059
1.0800,-0.02059
1.0805,-0.02059
1.0810,1.2
1.0815,1.2
1.0820,-0.9362
1.0825,-2.462
1.0830,-0.3258
1.0835,1.505
1.0840,-0.3258
1.0845,-4.599
1.0850,-5.819
1.0855,-3.073
1.0860,-0.02059
1.0865,-0.02059
1.0870,-1.241
1.0875,-1.547
1.0880,0.5898
1.0885,3.031
1.0890,3.947
1.0895,3.337
1.0900,3.031
1.0905,3.947
1.0910,3.031
1.0915,-0.631
1.0920,-4.904
1.0925,-5.819
1.0930,-2.462
1.0935,1.505
1.0940,3.947
1.0945,3.337
1.0950,1.2
1.0955,-0.02059
1.0960,0.2846
1.0965,0.5898
1.0970,-0.02059
1.0975,-2.462
1.0980,-5.514
1.0985,-7.04
1.0990,-6.735
1.0995,-6.43
1.1000,-6.43
1.1005,-5.819
1.1010,-3.378
1.1015,-1.852
1.1020,-3.378
1.1025,-5.209
1.1030,-3.988
1.1035,-0.3258
1.1040,2.421
1.1045,3.337
1.1050,5.473
1.1055,9.135
1.1060,11.27
1.1065,10.97
1.1070,11.88
1.1075,15.54
1.1080,16.46
1.1085,9.44
1.1090,-2.462
1.1095,-11.92
1.1100,-15.28
1.1105,-15.28
1.1110,-14.36
1.1115,-11.31
1.1120,-6.43
1.1125,-3.073
1.1130,-2.767
1.1135,-3.378
1.1140,-2.157
1.1145,-0.02059
1.1150,2.726
1.1155,4.557
1.1160,4.863
1.1165,4.863
1.1170,5.473
1.1175,6.388
1.1180,4.252
1.1185,-1.547
1.1190,-8.261
1.1195,-10.4
1.1200,-7.956
1.1205,-4.599
1.1210,-2.767
1.1215,-1.852
1.1220,-1.241
1.1225,-1.241
1.1230,-2.767
1.1235,-4.599
1.1240,-5.209
1.1245,-3.683
1.1250,-0.02059
1.1255,4.557
1.1260,7.304
1.1265,6.083
1.1270,1.505
1.1275,-2.767
1.1280,-6.124
1.1285,-7.65
1.1290,-8.261
1.1295,-7.65
1.1300,-6.735
1.1305,-5.514
1.1310,-3.683
1.1315,-1.547
1.1320,0.2846
1.1325,2.116
1.1330,2.726
1.1335,3.031
1.1340,3.947
1.1345,4.863
1.1350,5.778
1.1355,5.168
1.1360,2.726
1.1365,0.5898
1.1370,0.895
1.1375,3.642
1.1380,7.304
1.1385,10.36
1.1390,12.8
1.1395,13.41
1.1400,13.1
1.1405,13.1
1.1410,14.63
1.1415,16.46
1.1420,16.77
1.1425,16.46
1.1430,17.99
1.1435,21.04
1.1440,19.82
1.1445,11.58
1.1450,-0.02059
1.1455,-7.345
1.1460,-7.345
1.1465,-5.209
1.1470,-7.956
1.1475,-15.89
1.1480,-21.99
1.1485,-20.47
1.1490,-13.75
1.1495,-7.956
1.1500,-6.124
1.1505,-6.124
1.1510,-6.735
1.1515,-9.176
1.1520,-11.92
1.1525,-10.7
1.1530,-3.378
1.1535,5.168
1.1540,10.36
1.1545,11.58
1.1550,11.27
1.1555,10.36
1.1560,7.609
1.1565,2.726
1.1570,-1.852
1.1575,-3.988
1.1580,-3.988
1.1585,-2.767
1.1590,-3.683
1.1595,-8.261
1.1600,-13.75
1.1605,-16.81
1.1610,-17.11
1.1615,-18.64
1.1620,-24.44
1.1625,-32.07
1.1630,-35.73
1.1635,-34.2
1.1640,-31.15
1.1645,-28.4
1.1650,-24.13
1.1655,-16.81
1.1660,-9.482
1.1665,-7.04
1.1670,-8.871
1.1675,-9.787
1.1680,-4.904
1.1685,3.337
1.1690,10.05
1.1695,12.8
1.1700,13.1
1.1705,13.1
1.1710,13.41
1.1715,12.8
1.1720,12.19
1.1725,12.19
1.1730,13.71
1.1735,15.54
1.1740,17.68
1.1745,18.9
1.1750,18.29
1.1755,14.93
1.1760,9.746
1.1765,5.168
1.1770,4.557
1.1775,6.999
1.1780,10.36
1.1785,10.66
1.1790,7.914
1.1795,3.947
1.1800,2.726
1.1805,4.863
1.1810,7.609
1.1815,7.914
1.1820,5.168
1.1825,2.421
1.1830,2.726
1.1835,5.473
1.1840,8.525
1.1845,11.88
1.1850,16.15
1.1855,19.51
1.1860,19.21
1.1865,16.46
1.1870,15.24
1.1875,16.46
1.1880,16.15
1.1885,11.58
1.1890,6.388
1.1895,5.168
1.1900,7.304
1.1905,9.746
1.1910,10.66
1.1915,11.88
1.1920,13.71
1.1925,12.49
1.1930,6.083
1.1935,-4.599
1.1940,-15.59
1.1945,-22.91
1.1950,-24.44
1.1955,-21.69
1.1960,-17.11
1.1965,-12.84
1.1970,-9.787
1.1975,-7.956
1.1980,-5.819
1.1985,-3.073
1.1990,-0.3258
1.1995,-0.631
1.2000,-3.988
1.2005,-7.345
1.2010,-8.566
1.2015,-8.261
1.2020,-8.261
1.2025,-7.04
1.2030,-3.073
1.2035,0.2846
1.2040,0.895
1.2045,0.895
1.2050,3.337
1.2055,5.168
1.2060,0.895
1.2065,-7.65
1.2070,-10.4
1.2075,-3.988
1.2080,3.642
1.2085,5.168
1.2090,3.031
1.2095,2.116
1.2100,1.505
1.2105,-1.241
1.2110,-4.293
1.2115,-3.378
1.2120,-0.02059
1.2125,0.5898
1.2130,-0.631
1.2135,-0.02059
1.2140,1.811
1.2145,1.2
1.2150,-1.547
1.2155,-2.462
1.2160,-0.631
1.2165,-0.02059
1.2170,-2.462
1.2175,-4.293
1.2180,-2.767
1.2185,-0.9362
1.2190,-2.157
1.2195,-4.599
1.2200,-4.599
1.2205,-2.767
1.2210,-1.241
1.2215,-0.02059
1.2220,1.2
1.2225,2.116
1.2230,1.505
1.2235,1.2
1.2240,4.252
1.2245,9.746
1.2250,12.19
1.2255,9.746
1.2260,6.388
1.2265,5.473
1.2270,5.473
1.2275,2.726
1.2280,-1.547
1.2285,-3.988
1.2290,-3.683
1.2295,-3.378
1.2300,-4.599
1.2305,-5.514
1.2310,-3.988
1.2315,-2.157
1.2320,-2.462
1.2325,-6.124
1.2330,-10.09
1.2335,-11.31
1.2340,-9.482
1.2345,-5.819
1.2350,-3.378
1.2355,-2.767
1.2360,-2.157
1.2365,-0.3258
1.2370,1.2
1.2375,2.116
1.2380,3.337
1.2385,6.999
1.2390,11.58
1.2395,14.63
1.2400,16.46
1.2405,19.21
1.2410,21.65
1.2415,21.34
1.2420,18.29
1.2425,15.54
1.2430,13.41
1.2435,9.135
1.2440,3.947
1.2445,-0.02059
1.2450,-2.462
1.2455,-7.956
1.2460,-16.2
1.2465,-21.69
1.2470,-20.47
1.2475,-14.67
1.2480,-8.871
1.2485,-4.904
1.2490,-2.767
1.2495,-2.767
1.2500,-4.599
1.2505,-5.819
1.2510,-6.124
1.2515,-6.735
1.2520,-8.566
1.2525,-8.566
1.2530,-6.43
1.2535,-5.209
1.2540,-6.124
1.2545,-7.04
1.2550,-5.819
1.2555,-3.378
1.2560,-3.073
1.2565,-3.988
1.2570,-4.293
1.2575,-3.683
1.2580,-3.988
1.2585,-4.904
1.2590,-3.988
1.2595,-1.852
1.2600,-0.02059
1.2605,-0.02059
1.2610,-0.02059
1.2615,-0.631
1.2620,-1.547
1.2625,-0.9362
1.2630,1.505
1.2635,4.252
1.2640,4.863
1.2645,3.947
1.2650,3.947
1.2655,4.863
1.2660,4.252
1.2665,2.421
1.2670,1.811
1.2675,3.337
1.2680,3.947
1.2685,2.726
1.2690,1.811
1.2695,2.726
1.2700,3.947
1.2705,3.947
1.2710,3.642
1.2715,3.947
1.2720,5.168
1.2725,5.778
1.2730,6.999
1.2735,8.525
1.2740,9.746
1.2745,9.746
1.2750,8.22
1.2755,4.557
1.2760,-0.9362
1.2765,-7.65
1.2770,-12.53
1.2775,-13.45
1.2780,-12.53
1.2785,-11.31
1.2790,-10.09
1.2795,-8.871
1.2800,-6.43
1.2805,-3.073
1.2810,-0.02059
1.2815,0.2846
1.2820,-0.9362
1.2825,-1.852
1.2830,-0.3258
1.2835,2.116
1.2840,4.252
1.2845,4.557
1.2850,2.726
1.2855,-1.852
1.2860,-7.04
1.2865,-7.65
1.2870,-1.852
1.2875,4.557
1.2880,7.304
1.2885,6.694
1.2890,5.778
1.2895,3.947
1.2900,0.5898
1.2905,-0.3258
1.2910,1.2
1.2915,1.505
1.2920,-3.683
1.2925,-9.482
1.2930,-8.871
1.2935,-2.767
1.2940,0.5898
1.2945,-0.02059
1.2950,-1.547
1.2955,-0.02059
1.2960,4.252
1.2965,10.97
1.2970,17.99
1.2975,18.9
1.2980,10.05
1.2985,-2.462
1.2990,-10.09
1.2995,-11.01
1.3000,-10.4
1.3005,-11.31
1.3010,-11.31
1.3015,-11.01
1.3020,-13.45
1.3025,-18.33
1.3030,-20.77
1.3035,-18.64
1.3040,-15.89
1.3045,-14.06
1.3050,-12.53
1.3055,-10.4
1.3060,-8.871
1.3065,-7.65
1.3070,-4.904
1.3075,-1.852
1.3080,-1.852
1.3085,-2.462
1.3090,-0.02059
1.3095,4.863
1.3100,7.304
1.3105,5.168
1.3110,1.505
1.3115,-0.3258
1.3120,-1.547
1.3125,-0.9362
1.3130,2.726
1.3135,7.914
1.3140,10.36
1.3145,10.66
1.3150,12.49
1.3155,17.07
1.3160,19.21
1.3165,16.77
1.3170,12.8
1.3175,11.27
1.3180,11.88
1.3185,12.8
1.3190,12.8
1.3195,9.44
1.3200,-0.02059
1.3205,-12.53
1.3210,-18.94
1.3215,-14.98
1.3220,-5.514
1.3225,0.5898
1.3230,1.2
1.3235,-1.852
1.3240,-6.43
1.3245,-9.482
1.3250,-7.345
1.3255,-0.631
1.3260,5.778
1.3265,7.914
1.3270,7.914
1.3275,9.44
1.3280,12.19
1.3285,14.02
1.3290,14.02
1.3295,12.49
1.3300,10.05
1.3305,7.609
1.3310,6.999
1.3315,7.609
1.3320,6.388
1.3325,1.811
1.3330,-1.241
1.3335,0.2846
1.3340,3.947
1.3345,4.557
1.3350,1.2
1.3355,-0.9362
1.3360,-1.241
1.3365,-2.767
1.3370,-5.819
1.3375,-5.514
1.3380,1.2
1.3385,11.88
1.3390,19.82
1.3395,24.39
1.3400,27.14
1.3405,27.75
1.3410,24.39
1.3415,18.6
1.3420,13.71
1.3425,7.914
1.3430,-3.378
1.3435,-18.64
1.3440,-29.01
1.3445,-30.85
1.3450,-29.32
1.3455,-29.32
1.3460,-27.49
1.3465,-19.55
1.3470,-12.84
1.3475,-16.5
1.3480,-27.18
1.3485,-32.98
1.3490,-27.18
1.3495,-17.72
1.3500,-13.14
1.3505,-14.36
1.3510,-16.5
1.3515,-17.11
1.3520,-14.67
1.3525,-9.176
1.3530,-2.157
1.3535,2.421
1.3540,3.337
1.3545,2.726
1.3550,2.726
1.3555,2.726
1.3560,2.116
1.3565,2.116
1.3570,3.337
1.3575,3.642
1.3580,1.811
1.3585,0.2846
1.3590,1.2
1.3595,3.642
1.3600,4.863
1.3605,4.252
1.3610,4.863
1.3615,6.388
1.3620,6.999
1.3625,5.168
1.3630,4.252
1.3635,5.778
1.3640,7.304
1.3645,4.863
1.3650,-0.631
1.3655,-3.988
1.3660,-2.462
1.3665,0.895
1.3670,2.726
1.3675,3.031
1.3680,4.252
1.3685,6.388
1.3690,7.304
1.3695,6.999
1.3700,6.694
1.3705,6.388
1.3710,5.778
1.3715,3.947
1.3720,2.116
1.3725,1.2
1.3730,1.505
1.3735,2.421
1.3740,3.642
1.3745,4.252
1.3750,4.863
1.3755,5.473
1.3760,6.083
1.3765,6.083
1.3770,5.168
1.3775,5.168
1.3780,6.083
1.3785,6.999
1.3790,8.22
1.3795,9.44
1.3800,10.66
1.3805,11.27
1.3810,10.66
1.3815,9.746
1.3820,9.135
1.3825,7.609
1.3830,6.388
1.3835,6.694
1.3840,8.22
1.3845,6.999
1.3850,0.5898
1.3855,-7.65
1.3860,-14.98
1.3865,-19.25
1.3870,-18.94
1.3875,-12.84
1.3880,-3.073
1.3885,3.642
1.3890,3.642
1.3895,-0.631
1.3900,-3.683
1.3905,-3.378
1.3910,-1.547
1.3915,-0.631
1.3920,-0.02059
1.3925,-0.02059
1.3930,-2.157
1.3935,-5.819
1.3940,-7.345
1.3945,-6.124
1.3950,-3.988
1.3955,-3.073
1.3960,-3.073
1.3965,-2.157
1.3970,-0.3258
1.3975,1.505
1.3980,3.337
1.3985,4.863
1.3990,5.473
1.3995,5.778
1.4000,6.999
1.4005,7.609
1.4010,5.473
1.4015,2.116
1.4020,-0.02059
1.4025,-0.3258
1.4030,-0.9362
1.4035,-2.157
1.4040,-2.157
1.4045,0.5898
1.4050,4.557
1.4055,6.388
1.4060,3.337
1.4065,-3.073
1.4070,-10.09
1.4075,-12.53
1.4080,-7.956
1.4085,-0.3258
1.4090,3.031
1.4095,1.505
1.4100,-1.547
1.4105,-2.462
1.4110,-1.852
1.4115,-2.157
1.4120,-3.073
1.4125,-2.157
1.4130,-0.631
1.4135,-0.02059
1.4140,-0.3258
1.4145,0.2846
1.4150,1.811
1.4155,2.421
1.4160,2.116
1.4165,3.031
1.4170,4.557
1.4175,3.337
1.4180,-0.02059
1.4185,-2.462
1.4190,-1.852
1.4195,-0.3258
1.4200,-0.02059
1.4205,-0.02059
1.4210,1.811
1.4215,3.337
1.4220,2.116
1.4225,-0.02059
1.4230,0.2846
1.4235,2.726
1.4240,4.252
1.4245,3.337
1.4250,1.2
1.4255,-1.241
1.4260,-4.293
1.4265,-7.345
1.4270,-8.566
1.4275,-8.566
1.4280,-9.176
1.4285,-8.566
1.4290,-5.514
1.4295,-1.852
1.4300,-1.547
1.4305,-4.599
1.4310,-6.124
1.4315,-3.073
1.4320,1.2
1.4325,3.642
1.4330,3.642
1.4335,3.642
1.4340,3.031
1.4345,0.2846
1.4350,-3.378
1.4355,-4.599
1.4360,-1.852
1.4365,1.505
1.4370,4.557
1.4375,5.778
1.4380,5.168
1.4385,1.505
1.4390,-3.683
1.4395,-8.871
1.4400,-11.31
1.4405,-10.4
1.4410,-6.124
1.4415,0.2846
1.4420,6.083
1.4425,6.999
1.4430,3.337
1.4435,-0.3258
1.4440,-1.241
1.4445,-1.547
1.4450,-2.157
1.4455,-2.462
1.4460,-0.631
1.4465,0.895
1.4470,0.895
1.4475,-0.02059
1.4480,-1.241
1.4485,-2.767
1.4490,-3.988
1.4495,-2.767
1.4500,1.2
1.4505,5.778
1.4510,7.914
1.4515,9.746
1.4520,12.19
1.4525,10.97
1.4530,2.421
1.4535,-7.65
1.4540,-11.31
1.4545,-6.43
1.4550,-0.02059
1.4555,2.421
1.4560,0.5898
1.4565,-3.683
1.4570,-8.871
1.4575,-11.92
1.4580,-11.01
1.4585,-6.124
1.4590,-1.547
1.4595,0.2846
1.4600,0.5898
1.4605,0.2846
1.4610,-0.02059
1.4615,0.2846
1.4620,0.5898
1.4625,0.2846
1.4630,-0.631
1.4635,-0.631
1.4640,0.895
1.4645,2.421
1.4650,1.2
1.4655,-0.3258
1.4660,-0.631
1.4665,0.2846
1.4670,0.5898
1.4675,-0.02059
1.4680,0.2846
1.4685,2.116
1.4690,3.642
1.4695,3.642
1.4700,2.726
1.4705,2.421
1.4710,2.116
1.4715,1.505
1.4720,1.2
1.4725,1.2
1.4730,1.811
1.4735,2.421
1.4740,2.726
1.4745,2.116
1.4750,0.895
1.4755,-0.02059
1.4760,-0.631
1.4765,-1.547
1.4770,-2.767
1.4775,-3.073
1.4780,-0.631
1.4785,1.811
1.4790,2.421
1.4795,1.2
1.4800,0.895
1.4805,1.505
1.4810,1.811
1.4815,-0.02059
1.4820,-1.241
1.4825,-0.631
1.4830,1.2
1.4835,3.337
1.4840,4.557
1.4845,4.863
1.4850,3.947
1.4855,2.116
1.4860,0.2846
1.4865,-0.02059
1.4870,-0.3258
1.4875,-1.241
1.4880,-2.462
1.4885,-1.852
1.4890,-0.631
1.4895,0.2846
1.4900,0.5898
1.4905,0.895
1.4910,1.2
1.4915,0.895
1.4920,-0.02059
1.4925,-0.3258
1.4930,0.2846
1.4935,1.811
1.4940,2.116
1.4945,0.895
1.4950,-0.02059
1.4955,0.2846
1.4960,0.2846
1.4965,-0.631
1.4970,-1.547
1.4975,-0.631
1.4980,0.2846
1.4985,0.2846
1.4990,-0.3258
1.4995,-0.02059
1.5000,0.5898
1.5005,1.2
1.5010,1.2
1.5015,0.895
1.5020,0.5898
1.5025,-0.02059
1.5030,-1.547
1.5035,-1.547
1.5040,-0.3258
1.5045,-0.02059
1.5050,-0.02059
1.5055,-0.02059
1.5060,1.2
1.5065,1.2
1.5070,-0.3258
1.5075,-1.852
1.5080,-1.547
1.5085,-0.631
1.5090,-0.3258
1.5095,-0.631
1.5100,-0.02059
1.5105,1.505
1.5110,2.116
1.5115,1.505
1.5120,1.2
1.5125,0.895
1.5130,-0.02059
1.5135,-0.3258
1.5140,-0.02059
1.5145,0.5898
1.5150,0.895
1.5155,-0.02059
1.5160,-0.02059
1.5165,-0.02059
1.5170,-1.852
1.5175,-4.293
1.5180,-4.599
1.5185,-2.462
1.5190,-0.02059
1.5195,0.2846
1.5200,-0.9362
1.5205,-2.462
1.5210,-2.767
1.5215,-2.157
1.5220,-1.547
1.5225,-0.9362
1.5230,-0.631
1.5235,-0.631
1.5240,-0.631
1.5245,-0.631
1.5250,-0.9362
1.5255,-1.241
1.5260,-0.631
1.5265,-0.02059
1.5270,-0.02059
1.5275,-1.241
1.5280,-2.157
1.5285,-2.157
1.5290,-2.157
1.5295,-2.157
1.5300,-1.547
1.5305,-0.02059
1.5310,1.2
1.5315,0.5898
1.5320,-0.02059
1.5325,-0.02059
1.5330,-0.02059
1.5335,-0.3258
1.5340,-1.241
1.5345,-1.547
1.5350,-0.9362
1.5355,-0.02059
1.5360,-0.02059
1.5365,-0.02059
1.5370,-0.02059
1.5375,-0.02059
1.5380,-0.02059
1.5385,-0.02059
1.5390,0.2846
1.5395,0.2846
1.5400,0.5898
1.5405,0.5898
1.5410,0.895
1.5415,0.895
1.5420,0.2846
1.5425,-0.3258
1.5430,-0.631
1.5435,0.2846
1.5440,1.505
1.5445,1.505
1.5450,-0.02059
1.5455,-1.241
1.5460,-1.241
1.5465,-0.631
1.5470,-0.3258
1.5475,-0.3258
1.5480,-0.631
1.5485,-0.9362
1.5490,-1.852
1.5495,-2.157
1.5500,-1.241
1.5505,-0.02059
1.5510,0.895
1.5515,0.895
1.5520,0.2846
1.5525,-0.02059
1.5530,-0.631
1.5535,-0.9362
1.5540,-0.631
1.5545,-0.3258
1.5550,-0.02059
1.5555,-0.3258
1.5560,-1.241
1.5565,-0.9362
1.5570,-0.02059
1.5575,1.505
1.5580,1.811
1.5585,0.5898
1.5590,-0.02059
1.5595,0.2846
1.5600,-0.02059
1.5605,-0.9362
1.5610,-1.852
1.5615,-0.631
1.5620,0.895
1.5625,0.5898
1.5630,-0.9362
1.5635,-2.157
1.5640,-1.241
1.5645,-0.3258
1.5650,-0.631
1.5655,-0.9362
1.5660,-0.02059
1.5665,1.505
1.5670,2.116
1.5675,1.505
1.5680,1.2
1.5685,2.421
1.5690,3.031
1.5695,2.726
1.5700,1.2
1.5705,0.895
1.5710,1.811
1.5715,3.337
1.5720,4.252
1.5725,3.947
1.5730,2.726
1.5735,1.505
1.5740,1.811
1.5745,2.726
1.5750,2.726
1.5755,1.505
1.5760,-0.02059
1.5765,-0.02059
1.5770,-0.02059
1.5775,-0.02059
1.5780,-0.631
1.5785,-1.241
1.5790,-1.547
1.5795,-1.547
1.5800,-0.9362
1.5805,-0.631
1.5810,-0.631
1.5815,-0.9362
1.5820,-1.547
1.5825,-1.547
1.5830,-0.631
1.5835,-0.02059
1.5840,-0.02059
1.5845,-0.3258
1.5850,-0.9362
1.5855,-0.9362
1.5860,-0.9362
1.5865,-0.3258
1.5870,-0.02059
1.5875,-0.02059
1.5880,-0.3258
1.5885,-0.9362
1.5890,-0.631
1.5895,0.5898
1.5900,1.811
1.5905,0.895
1.5910,-0.9362
1.5915,-1.852
1.5920,-0.9362
1.5925,-0.02059
1.5930,-0.02059
1.5935,-0.3258
1.5940,-0.631
1.5945,-0.3258
1.5950,-0.02059
1.5955,-0.02059
1.5960,0.2846
1.5965,0.5898
1.5970,0.5898
1.5975,0.5898
1.5980,1.2
1.5985,2.421
1.5990,3.031
1.5995,1.505
1.6000,-0.02059
1.6005,-0.3258
1.6010,0.895
1.6015,2.726
1.6020,3.031
1.6025,2.116
1.6030,1.2
1.6035,1.2
1.6040,0.895
1.6045,0.2846
1.6050,-0.3258
1.6055,-0.02059
1.6060,0.5898
1.6065,1.2
1.6070,1.2
1.6075,0.2846
1.6080,-0.02059
1.6085,-0.02059
1.6090,1.2
1.6095,1.811
1.6100,1.505
1.6105,0.895
1.6110,1.2
1.6115,2.116
1.6120,1.811
1.6125,0.895
1.6130,0.2846
1.6135,0.5898
1.6140,0.895
1.6145,0.2846
1.6150,-0.02059
1.6155,-0.02059
1.6160,0.895
1.6165,0.5898
1.6170,-0.3258
1.6175,-1.241
1.6180,-1.547
1.6185,-1.241
1.6190,-0.9362
1.6195,-0.631
1.6200,-0.3258
1.6205,-0.3258
1.6210,-0.631
1.6215,-0.9362
1.6220,-0.9362
1.6225,-0.02059
1.6230,-0.02059
1.6235,-0.631
1.6240,-1.241
1.6245,-0.9362
1.6250,-0.02059
1.6255,-0.3258
1.6260,-0.9362
1.6265,-0.631
1.6270,-0.3258
1.6275,-0.631
1.6280,-1.852
1.6285,-1.852
1.6290,-0.631
1.6295,-0.02059
1.6300,-0.631
1.6305,-1.241
1.6310,-1.241
1.6315,-1.852
1.6320,-2.767
1.6325,-2.462
1.6330,-1.241
1.6335,-1.241
1.6340,-2.157
1.6345,-1.852
1.6350,-0.3258
1.6355,0.2846
1.6360,-0.9362
1.6365,-2.157
1.6370,-1.241
1.6375,0.2846
1.6380,0.5898
1.6385,-0.3258
1.6390,-0.9362
1.6395,-0.631
1.6400,-0.02059
1.6405,-0.02059
1.6410,-0.3258
1.6415,-1.241
1.6420,-1.852
1.6425,-2.157
1.6430,-1.241
1.6435,-0.3258
1.6440,-0.02059
1.6445,0.5898
1.6450,0.895
1.6455,0.895
1.6460,0.2846
1.6465,-0.02059
1.6470,-0.631
1.6475,-0.9362
1.6480,-0.9362
1.6485,-0.3258
1.6490,0.5898
1.6495,0.895
1.6500,-0.02059
1.6505,-1.241
1.6510,-1.241
1.6515,-0.631
1.6520,-0.9362
1.6525,-1.241
1.6530,-0.9362
1.6535,-0.3258
1.6540,-0.02059
1.6545,-0.02059
1.6550,-0.02059
1.6555,0.5898
1.6560,0.895
1.6565,1.2
1.6570,1.2
1.6575,1.2
1.6580,0.895
1.6585,0.5898
1.6590,0.2846
1.6595,0.2846
1.6600,0.5898
1.6605,0.5898
1.6610,0.895
1.6615,1.2
1.6620,1.811
1.6625,2.421
1.6630,2.726
1.6635,2.116
1.6640,0.5898
1.6645,-0.02059
1.6650,-0.02059
1.6655,-0.02059
1.6660,0.2846
1.6665,-0.02059
1.6670,-0.3258
1.6675,-0.3258
1.6680,-0.02059
1.6685,0.5898
1.6690,0.895
1.6695,0.2846
1.6700,-0.02059
1.6705,-0.02059
1.6710,-0.02059
1.6715,-0.02059
1.6720,-0.02059
1.6725,-0.02059
1.6730,-0.02059
1.6735,-0.3258
1.6740,-0.02059
1.6745,0.5898
1.6750,0.5898
1.6755,-0.02059
1.6760,-0.631
1.6765,-0.631
1.6770,-0.631
1.6775,-1.241
1.6780,-1.852
1.6785,-1.852
1.6790,-2.462
1.6795,-3.073
1.6800,-3.378
1.6805,-1.852
1.6810,-0.02059
1.6815,1.2
1.6820,0.5898
1.6825,-0.02059
1.6830,-0.02059
1.6835,-0.02059
1.6840,-0.02059
1.6845,-0.3258
1.6850,-0.3258
1.6855,-0.02059
1.6860,-0.02059
1.6865,-0.02059
1.6870,-1.241
1.6875,-2.157
1.6880,-1.547
1.6885,-0.02059
1.6890,1.505
1.6895,1.2
1.6900,1.2
1.6905,1.811
1.6910,2.116
1.6915,1.2
1.6920,-0.02059
1.6925,0.5898
1.6930,2.421
1.6935,3.337
1.6940,2.726
1.6945,1.505
1.6950,1.2
1.6955,1.2
1.6960,0.895
1.6965,1.2
1.6970,2.116
1.6975,3.337
1.6980,3.642
1.6985,2.421
1.6990,1.2
1.6995,0.5898
1.7000,1.505
1.7005,2.421
1.7010,1.811
1.7015,-0.02059
1.7020,-0.3258
1.7025,-0.02059
1.7030,-0.3258
1.7035,-2.767
1.7040,-5.209
1.7045,-5.819
1.7050,-5.209
1.7055,-5.514
1.7060,-7.04
1.7065,-7.345
1.7070,-5.819
1.7075,-3.988
1.7080,-2.767
1.7085,-1.547
1.7090,-0.02059
1.7095,-0.02059
1.7100,-1.241
1.7105,-2.767
1.7110,-2.767
1.7115,-1.241
1.7120,-0.631
1.7125,-0.9362
1.7130,-1.241
1.7135,-0.02059
1.7140,1.505
1.7145,1.811
1.7150,0.895
1.7155,0.5898
1.7160,0.895
1.7165,1.2
1.7170,0.895
1.7175,0.2846
1.7180,0.2846
1.7185,1.2
1.7190,2.421
1.7195,2.421
1.7200,1.811
1.7205,1.811
1.7210,2.421
1.7215,2.116
1.7220,1.2
1.7225,-0.02059
1.7230,0.2846
1.7235,1.505
1.7240,2.116
1.7245,1.505
1.7250,0.895
1.7255,1.2
1.7260,2.116
1.7265,2.116
1.7270,1.505
1.7275,1.811
1.7280,2.726
1.7285,2.726
1.7290,1.505
1.7295,-0.02059
1.7300,-0.631
1.7305,-0.3258
1.7310,0.2846
1.7315,1.505
1.7320,2.421
1.7325,2.116
1.7330,0.2846
1.7335,-0.9362
1.7340,-0.9362
1.7345,-0.02059
1.7350,0.895
1.7355,0.895
1.7360,-0.02059
1.7365,-0.3258
1.7370,-0.9362
1.7375,-1.547
1.7380,-1.547
1.7385,-0.9362
1.7390,-0.3258
1.7395,-0.3258
1.7400,-0.631
1.7405,-0.02059
1.7410,1.2
1.7415,1.505
1.7420,0.2846
1.7425,-1.241
1.7430,-1.547
1.7435,-0.3258
1.7440,0.2846
1.7445,-0.02059
1.7450,-1.547
1.7455,-1.547
1.7460,-0.3258
1.7465,0.2846
1.7470,-0.02059
1.7475,-0.3258
1.7480,-0.02059
1.7485,0.2846
1.7490,0.2846
1.7495,-0.02059
1.7500,-0.02059
1.7505,-0.02059
1.7510,-0.9362
1.7515,-1.547
1.7520,-0.9362
1.7525,-0.3258
1.7530,-0.631
1.7535,-1.547
1.7540,-1.241
1.7545,-0.02059
1.7550,0.2846
1.7555,-0.02059
1.7560,-0.3258
1.7565,0.2846
1.7570,1.2
1.7575,0.895
1.7580,-0.02059
1.7585,-0.631
1.7590,-0.3258
1.7595,-0.02059
1.7600,0.895
1.7605,0.5898
1.7610,-0.02059
1.7615,-1.241
1.7620,-1.241
1.7625,-0.9362
1.7630,-0.631
1.7635,-0.631
1.7640,-0.3258
1.7645,-0.02059
1.7650,-0.02059
1.7655,-0.3258
1.7660,-0.3258
1.7665,-0.02059
1.7670,-0.02059
1.7675,-0.02059
1.7680,-0.3258
1.7685,-0.02059
1.7690,-0.3258
1.7695,-1.241
1.7700,-1.547
1.7705,-1.241
1.7710,-1.241
1.7715,-1.547
1.7720,-1.547
1.7725,-0.02059
1.7730,1.505
1.7735,0.895
1.7740,-0.3258
1.7745,-0.631
1.7750,0.2846
1.7755,1.2
1.7760,0.2846
1.7765,-0.631
1.7770,-0.3258
1.7775,0.5898
1.7780,0.895
1.7785,0.2846
1.7790,-0.02059
1.7795,0.2846
1.7800,0.895
1.7805,0.5898
1.7810,-0.02059
1.7815,-0.02059
1.7820,0.2846
1.7825,1.2
1.7830,1.505
1.7835,0.895
1.7840,-0.02059
1.7845,-0.02059
1.7850,0.2846
1.7855,0.5898
1.7860,0.2846
1.7865,0.5898
1.7870,0.5898
1.7875,-0.02059
1.7880,-1.547
1.7885,-2.462
1.7890,-0.9362
1.7895,0.5898
1.7900,0.895
1.7905,-0.02059
1.7910,-0.631
1.7915,-0.631
1.7920,-0.3258
1.7925,-0.02059
1.7930,0.2846
1.7935,0.895
1.7940,0.895
1.7945,0.5898
1.7950,0.5898
1.7955,1.2
1.7960,1.2
1.7965,0.5898
1.7970,-0.02059
1.7975,-0.02059
1.7980,-0.3258
1.7985,-0.631
1.7990,-0.02059
1.7995,0.5898
1.8000,0.2846
1.8005,-0.3258
1.8010,-0.3258
1.8015,0.2846
1.8020,1.2
1.8025,0.895
1.8030,0.5898
1.8035,1.2
1.8040,1.2
1.8045,0.2846
1.8050,-0.02059
1.8055,0.895
1.8060,1.505
1.8065,0.2846
1.8070,-0.3258
1.8075,0.2846
1.8080,0.895
1.8085,-0.631
1.8090,-3.378
1.8095,-3.683
1.8100,-1.852
1.8105,-0.3258
1.8110,-0.3258
1.8115,-0.02059
1.8120,0.2846
1.8125,-0.02059
1.8130,-0.9362
1.8135,-1.241
1.8140,-0.9362
1.8145,-1.547
1.8150,-3.073
1.8155,-3.378
1.8160,-2.157
1.8165,-1.241
1.8170,-1.852
1.8175,-2.767
1.8180,-2.462
1.8185,-2.157
1.8190,-2.157
1.8195,-1.547
1.8200,-0.631
1.8205,-0.3258
1.8210,-0.631
1.8215,-0.3258
1.8220,0.895
1.8225,2.116
1.8230,1.505
1.8235,0.2846
1.8240,0.5898
1.8245,1.505
1.8250,2.116
1.8255,1.2
1.8260,0.2846
1.8265,-0.02059
1.8270,0.2846
1.8275,0.2846
1.8280,-0.3258
1.8285,-0.9362
1.8290,-0.9362
1.8295,-0.3258
1.8300,-0.3258
1.8305,-1.241
1.8310,-1.241
1.8315,-0.02059
1.8320,1.2
1.8325,1.2
1.8330,-0.02059
1.8335,-0.02059
1.8340,0.2846
1.8345,-0.02059
1.8350,-0.02059
1.8355,-0.02059
1.8360,0.5898
1.8365,0.5898
1.8370,0.2846
1.8375,0.895
1.8380,1.2
1.8385,1.2
1.8390,1.2
1.8395,2.116
1.8400,3.337
1.8405,3.031
1.8410,1.811
1.8415,1.505
1.8420,1.2
1.8425,-0.02059
1.8430,-1.241
1.8435,-1.241
1.8440,-0.02059
1.8445,-0.02059
1.8450,-0.3258
1.8455,-0.631
1.8460,-0.02059
1.8465,-0.631
1.8470,-2.157
1.8475,-2.462
1.8480,-1.241
1.8485,-0.3258
1.8490,-0.9362
1.8495,-0.631
1.8500,0.895
1.8505,2.421
1.8510,1.2
1.8515,-0.02059
1.8520,-0.02059
1.8525,0.2846
1.8530,-0.3258
1.8535,-2.157
1.8540,-2.767
1.8545,-1.547
1.8550,-0.631
1.8555,-0.3258
1.8560,-0.02059
1.8565,0.5898
1.8570,0.895
1.8575,0.2846
1.8580,0.2846
1.8585,1.505
1.8590,2.726
1.8595,2.421
1.8600,1.505
1.8605,1.2
1.8610,1.505
1.8615,1.505
1.8620,0.895
1.8625,-0.02059
1.8630,-0.02059
1.8635,-0.02059
1.8640,-0.02059
1.8645,0.2846
1.8650,0.2846
1.8655,-0.3258
1.8660,-1.241
1.8665,-1.547
1.8670,-1.241
1.8675,-0.631
1.8680,-0.3258
1.8685,-0.02059
1.8690,-0.02059
1.8695,-0.9362
1.8700,-1.241
1.8705,-0.631
1.8710,-0.02059
1.8715,-0.9362
1.8720,-3.378
1.8725,-4.293
1.8730,-3.378
1.8735,-2.462
1.8740,-2.157
1.8745,-1.852
1.8750,-0.9362
1.8755,-0.3258
1.8760,-0.9362
1.8765,-0.631
1.8770,-0.02059
1.8775,0.895
1.8780,-0.02059
1.8785,-0.9362
1.8790,-0.631
1.8795,-0.02059
1.8800,-0.02059
1.8805,-0.631
1.8810,-0.02059
1.8815,0.2846
1.8820,0.5898
1.8825,0.5898
1.8830,1.811
1.8835,3.031
1.8840,3.031
1.8845,1.2
1.8850,0.5898
1.8855,1.811
1.8860,3.031
1.8865,3.337
1.8870,2.726
1.8875,2.421
1.8880,1.811
1.8885,1.2
1.8890,0.895
1.8895,1.2
1.8900,1.505
1.8905,1.2
1.8910,0.895
1.8915,0.5898
1.8920,0.895
1.8925,1.505
1.8930,1.811
1.8935,1.2
1.8940,-0.02059
1.8945,-1.547
1.8950,-1.547
1.8955,-0.9362
1.8960,-0.9362
1.8965,-0.9362
1.8970,-0.3258
1.8975,-0.02059
1.8980,-0.02059
1.8985,-1.547
1.8990,-1.547
1.8995,-0.3258
1.9000,0.2846
1.9005,-0.02059
1.9010,-0.02059
1.9015,0.5898
1.9020,1.811
1.9025,1.811
1.9030,0.2846
1.9035,-0.02059
1.9040,0.2846
1.9045,1.2
1.9050,1.811
1.9055,1.505
1.9060,1.2
1.9065,0.5898
1.9070,-0.02059
1.9075,-0.3258
1.9080,-0.631
1.9085,-0.02059
1.9090,0.895
1.9095,0.895
1.9100,-0.02059
1.9105,-0.631
1.9110,-0.631
1.9115,-0.02059
1.9120,-0.02059
1.9125,-0.02059
1.9130,-0.02059
1.9135,-0.02059
1.9140,0.2846
1.9145,-0.02059
1.9150,-0.3258
1.9155,-0.3258
1.9160,-0.02059
1.9165,-0.3258
1.9170,-0.02059
1.9175,1.2
1.9180,1.811
1.9185,0.5898
1.9190,-0.631
1.9195,-0.631
1.9200,-0.02059
1.9205,-0.9362
1.9210,-2.767
1.9215,-2.767
1.9220,-0.9362
1.9225,-0.02059
1.9230,-0.3258
1.9235,-1.241
1.9240,-0.3258
1.9245,0.2846
1.9250,-0.02059
1.9255,-0.631
1.9260,-0.02059
1.9265,0.2846
1.9270,-0.02059
1.9275,-1.241
1.9280,-0.9362
1.9285,-0.02059
1.9290,-0.02059
1.9295,-0.631
1.9300,-0.9362
1.9305,-0.3258
1.9310,-0.02059
1.9315,-0.02059
1.9320,-0.631
1.9325,-1.241
1.9330,-1.547
1.9335,-0.9362
1.9340,-0.02059
1.9345,0.5898
1.9350,0.895
1.9355,0.895
1.9360,0.2846
1.9365,-0.02059
1.9370,-0.3258
1.9375,-0.9362
1.9380,-1.852
1.9385,-3.073
1.9390,-2.767
1.9395,-0.9362
1.9400,-0.02059
1.9405,-0.02059
1.9410,-0.9362
1.9415,-0.02059
1.9420,1.2
1.9425,0.895
1.9430,-0.631
1.9435,-1.241
1.9440,-0.02059
1.9445,0.895
1.9450,0.5898
1.9455,0.5898
1.9460,1.811
1.9465,2.726
1.9470,2.116
1.9475,0.5898
1.9480,-0.02059
1.9485,-0.02059
1.9490,-0.02059
1.9495,-0.3258
1.9500,-0.3258
1.9505,-0.02059
1.9510,0.2846
1.9515,0.2846
1.9520,-0.02059
1.9525,-0.631
1.9530,-0.9362
1.9535,-1.241
1.9540,-1.241
1.9545,-0.9362
1.9550,-0.3258
1.9555,-0.02059
1.9560,0.5898
1.9565,1.2
1.9570,1.2
1.9575,0.5898
1.9580,-0.02059
1.9585,-0.3258
1.9590,-0.631
1.9595,-0.3258
1.9600,-0.02059
1.9605,-0.02059
1.9610,-0.02059
1.9615,-0.02059
1.9620,-0.02059
1.9625,-0.02059
1.9630,0.2846
1.9635,0.5898
1.9640,0.5898
1.9645,-0.02059
1.9650,-0.9362
1.9655,-2.157
1.9660,-2.157
1.9665,-0.9362
1.9670,-0.02059
1.9675,-0.02059
1.9680,-0.631
1.9685,-0.02059
1.9690,1.2
1.9695,1.811
1.9700,0.2846
1.9705,-0.9362
1.9710,-0.3258
1.9715,0.895
1.9720,0.895
1.9725,-0.02059
1.9730,-0.9362
1.9735,-0.631
1.9740,-0.631
1.9745,-1.241
1.9750,-0.631
1.9755,0.2846
1.9760,0.5898
1.9765,-0.3258
1.9770,-1.852
1.9775,-1.852
1.9780,-0.3258
1.9785,0.895
1.9790,1.505
1.9795,0.5898
1.9800,-0.3258
1.9805,-0.9362
1.9810,-0.02059
1.9815,0.5898
1.9820,0.5898
1.9825,-0.02059
1.9830,-0.3258
1.9835,-0.631
1.9840,-1.241
1.9845,-1.241
1.9850,-0.02059
1.9855,1.505
1.9860,1.505
1.9865,-0.02059
1.9870,-0.3258
1.9875,-0.02059
1.9880,0.2846
1.9885,-0.3258
1.9890,-0.9362
1.9895,-0.02059
1.9900,0.5898
1.9905,-0.02059
1.9910,-0.02059
1.9915,0.2846
1.9920,0.895
1.9925,-0.3258
1.9930,-3.073
1.9935,-3.683
1.9940,-1.547
1.9945,-0.02059
1.9950,-0.02059
1.9955,-0.631
1.9960,-0.3258
1.9965,0.2846
1.9970,0.2846
1.9975,-0.3258
1.9980,-0.02059
1.9985,0.5898
1.9990,0.895
1.9995,-0.02059
2.0000,-0.631
2.0005,-0.631
2.0010,-0.02059
2.0015,0.5898
2.0020,0.895
2.0025,-0.02059
2.0030,-0.9362
2.0035,-0.9362
2.0040,-0.02059
2.0045,0.5898
2.0050,0.2846
2.0055,-0.02059
2.0060,0.5898
2.0065,1.811
2.0070,1.2
2.0075,-1.241
2.0080,-3.378
2.0085,-2.767
2.0090,-1.241
2.0095,-0.9362
2.0100,-1.547
2.0105,-1.547
2.0110,-0.9362
2.0115,-0.02059
2.0120,0.2846
2.0125,0.2846
2.0130,0.2846
2.0135,0.2846
2.0140,0.5898
2.0145,0.895
2.0150,0.895
2.0155,0.5898
2.0160,0.2846
2.0165,0.895
2.0170,1.505
2.0175,1.2
2.0180,0.2846
2.0185,-0.631
2.0190,-0.3258
2.0195,0.2846
2.0200,1.2
2.0205,0.895
2.0210,0.5898
2.0215,0.2846
2.0220,0.2846
2.0225,0.2846
2.0230,-0.02059
2.0235,-0.02059
2.0240,0.5898
2.0245,0.895
2.0250,1.2
2.0255,1.2
2.0260,0.5898
2.0265,-0.3258
2.0270,-1.241
2.0275,-1.241
2.0280,-0.3258
2.0285,0.2846
2.0290,0.2846
2.0295,-0.02059
2.0300,-0.02059
2.0305,0.5898
2.0310,0.895
2.0315,1.2
2.0320,1.2
2.0325,1.505
2.0330,2.726
2.0335,3.642
2.0340,2.726
2.0345,0.2846
2.0350,-0.631
2.0355,-0.02059
2.0360,0.5898
2.0365,0.2846
2.0370,-0.02059
2.0375,0.5898
2.0380,0.895
2.0385,0.2846
2.0390,-0.02059
2.0395,0.895
2.0400,2.421
2.0405,1.811
2.0410,-0.02059
2.0415,-0.02059
2.0420,0.5898
2.0425,0.895
2.0430,-0.02059
2.0435,-0.3258
2.0440,-0.02059
2.0445,-0.3258
2.0450,-1.852
2.0455,-2.462
2.0460,-1.241
2.0465,-0.02059
2.0470,0.5898
2.0475,0.2846
2.0480,-0.02059
2.0485,-0.3258
2.0490,-0.9362
2.0495,-0.631
2.0500,-0.02059
2.0505,1.2
2.0510,1.2
2.0515,0.5898
2.0520,-0.02059
2.0525,-0.02059
2.0530,-0.02059
2.0535,-0.02059
2.0540,-0.02059
2.0545,-0.02059
2.0550,-0.3258
2.0555,-0.02059
2.0560,-0.02059
2.0565,-0.02059
2.0570,-0.02059
2.0575,0.5898
2.0580,0.895
2.0585,-0.02059
2.0590,-1.547
2.0595,-1.852
2.0600,-0.9362
2.0605,-0.3258
2.0610,-0.631
2.0615,-1.241
2.0620,-1.241
2.0625,-0.631
2.0630,-0.02059
2.0635,0.895
2.0640,1.2
2.0645,0.895
2.0650,0.2846
2.0655,-0.02059
2.0660,0.2846
2.0665,0.5898
2.0670,0.895
2.0675,0.895
2.0680,1.2
2.0685,0.5898
2.0690,-0.631
2.0695,-1.852
2.0700,-1.852
2.0705,-0.9362
2.0710,-0.3258
2.0715,-1.241
2.0720,-1.852
2.0725,-0.631
2.0730,1.505
2.0735,3.337
2.0740,3.337
2.0745,3.337
2.0750,4.252
2.0755,4.557
2.0760,2.726
2.0765,0.2846
2.0770,-0.02059
2.0775,-0.02059
2.0780,-0.631
2.0785,-3.378
2.0790,-4.904
2.0795,-4.293
2.0800,-3.378
2.0805,-3.988
2.0810,-4.904
2.0815,-4.293
2.0820,-3.073
2.0825,-2.462
2.0830,-2.157
2.0835,-1.547
2.0840,-0.9362
2.0845,-0.9362
2.0850,-0.9362
2.0855,-0.631
2.0860,-0.02059
2.0865,-0.02059
2.0870,-0.02059
2.0875,-0.02059
2.0880,0.5898
2.0885,1.2
2.0890,1.2
2.0895,0.5898
2.0900,0.5898
2.0905,1.2
2.0910,1.505
2.0915,1.2
2.0920,-0.02059
2.0925,-1.852
2.0930,-2.462
2.0935,-1.852
2.0940,-0.9362
2.0945,-1.241
2.0950,-2.157
2.0955,-1.852
2.0960,-0.3258
2.0965,1.505
2.0970,2.726
2.0975,2.726
2.0980,1.505
2.0985,0.2846
2.0990,-0.02059
2.0995,0.895
2.1000,1.811
2.1005,1.811
2.1010,1.811
2.1015,2.116
2.1020,3.031
2.1025,3.031
2.1030,2.116
2.1035,1.2
2.1040,1.2
2.1045,2.116
2.1050,2.421
2.1055,1.811
2.1060,0.895
2.1065,-0.02059
2.1070,-0.3258
2.1075,-0.02059
2.1080,0.895
2.1085,1.811
2.1090,1.2
2.1095,-0.02059
2.1100,-0.02059
2.1105,0.2846
2.1110,0.5898
2.1115,0.5898
2.1120,1.2
2.1125,3.031
2.1130,4.863
2.1135,4.863
2.1140,3.337
2.1145,1.505
2.1150,-0.02059
2.1155,-0.9362
2.1160,-2.462
2.1165,-3.683
2.1170,-3.988
2.1175,-3.683
2.1180,-3.378
2.1185,-3.378
2.1190,-3.378
2.1195,-3.683
2.1200,-3.683
2.1205,-3.988
2.1210,-3.683
2.1215,-2.157
2.1220,-0.9362
2.1225,-0.9362
2.1230,-1.852
2.1235,-2.462
2.1240,-1.547
2.1245,-1.241
2.1250,-2.157
2.1255,-3.378
2.1260,-3.073
2.1265,-2.462
2.1270,-2.767
2.1275,-3.378
2.1280,-3.073
2.1285,-1.241
2.1290,-0.3258
2.1295,-0.9362
2.1300,-1.241
2.1305,-0.631
2.1310,-0.02059
2.1315,-0.02059
2.1320,-0.02059
2.1325,0.895
2.1330,2.726
2.1335,3.337
2.1340,2.116
2.1345,0.895
2.1350,0.895
2.1355,2.116
2.1360,2.726
2.1365,2.421
2.1370,1.505
2.1375,1.505
2.1380,2.116
2.1385,2.421
2.1390,1.505
2.1395,0.895
2.1400,1.2
2.1405,1.505
2.1410,1.2
2.1415,0.895
2.1420,1.811
2.1425,3.337
2.1430,3.947
2.1435,4.252
2.1440,5.473
2.1445,6.999
2.1450,7.304
2.1455,6.999
2.1460,7.914
2.1465,9.746
2.1470,10.36
2.1475,8.525
2.1480,6.999
2.1485,6.388
2.1490,6.083
2.1495,4.863
2.1500,3.642
2.1505,2.726
2.1510,1.505
2.1515,-0.631
2.1520,-1.852
2.1525,-1.852
2.1530,-2.462
2.1535,-4.599
2.1540,-6.43
2.1545,-6.735
2.1550,-7.04
2.1555,-8.871
2.1560,-11.01
2.1565,-11.31
2.1570,-10.7
2.1575,-11.31
2.1580,-12.53
2.1585,-12.84
2.1590,-11.92
2.1595,-12.23
2.1600,-14.06
2.1605,-14.36
2.1610,-12.84
2.1615,-11.62
2.1620,-11.92
2.1625,-11.31
2.1630,-7.956
2.1635,-4.293
2.1640,-3.378
2.1645,-4.293
2.1650,-3.683
2.1655,-1.852
2.1660,-0.9362
2.1665,-1.547
2.1670,-1.547
2.1675,-0.02059
2.1680,1.811
2.1685,2.726
2.1690,2.726
2.1695,3.337
2.1700,4.557
2.1705,5.473
2.1710,7.304
2.1715,8.83
2.1720,8.83
2.1725,6.999
2.1730,5.168
2.1735,5.473
2.1740,6.999
2.1745,7.304
2.1750,6.388
2.1755,5.778
2.1760,5.778
2.1765,5.778
2.1770,4.863
2.1775,3.947
2.1780,4.252
2.1785,4.863
2.1790,4.863
2.1795,3.642
2.1800,2.421
2.1805,1.2
2.1810,-0.02059
2.1815,-1.547
2.1820,-3.378
2.1825,-3.988
2.1830,-3.378
2.1835,-3.378
2.1840,-4.293
2.1845,-4.904
2.1850,-4.599
2.1855,-4.599
2.1860,-5.514
2.1865,-6.124
2.1870,-4.904
2.1875,-3.073
2.1880,-2.767
2.1885,-2.767
2.1890,-2.157
2.1895,-0.9362
2.1900,-0.3258
2.1905,-0.02059
2.1910,0.895
2.1915,2.116
2.1920,1.811
2.1925,0.5898
2.1930,0.5898
2.1935,2.421
2.1940,3.947
2.1945,4.252
2.1950,3.642
2.1955,3.947
2.1960,5.473
2.1965,6.999
2.1970,7.914
2.1975,8.83
2.1980,9.746
2.1985,10.97
2.1990,13.1
2.1995,15.54
2.2000,16.46
2.2005,15.54
2.2010,13.1
2.2015,11.88
2.2020,11.58
2.2025,10.97
2.2030,9.746
2.2035,8.525
2.2040,8.525
2.2045,9.135
2.2050,8.83
2.2055,6.999
2.2060,4.252
2.2065,1.811
2.2070,-0.02059
2.2075,-1.547
2.2080,-2.462
2.2085,-3.073
2.2090,-3.073
2.2095,-3.988
2.2100,-6.124
2.2105,-8.261
2.2110,-10.09
2.2115,-11.31
2.2120,-11.62
2.2125,-10.4
2.2130,-9.176
2.2135,-9.482
2.2140,-11.31
2.2145,-11.62
2.2150,-9.482
2.2155,-7.345
2.2160,-7.65
2.2165,-10.09
2.2170,-10.7
2.2175,-9.482
2.2180,-8.261
2.2185,-7.65
2.2190,-7.04
2.2195,-6.43
2.2200,-5.819
2.2205,-4.293
2.2210,-2.462
2.2215,-1.547
2.2220,-2.157
2.2225,-3.073
2.2230,-2.157
2.2235,-0.9362
2.2240,-0.631
2.2245,-0.3258
2.2250,1.2
2.2255,3.337
2.2260,4.252
2.2265,5.168
2.2270,7.914
2.2275,10.36
2.2280,9.746
2.2285,7.609
2.2290,8.22
2.2295,10.66
2.2300,10.97
2.2305,8.22
2.2310,5.778
2.2315,4.557
2.2320,0.895
2.2325,-4.904
2.2330,-9.482
2.2335,-9.787
2.2340,-8.871
2.2345,-10.4
2.2350,-13.45
2.2355,-14.06
2.2360,-13.14
2.2365,-12.23
2.2370,-11.92
2.2375,-10.4
2.2380,-7.345
2.2385,-3.378
2.2390,-0.02059
2.2395,4.557
2.2400,8.83
2.2405,11.88
2.2410,12.49
2.2415,11.27
2.2420,9.44
2.2425,7.304
2.2430,3.642
2.2435,-0.631
2.2440,-4.599
2.2445,-6.124
2.2450,-6.124
2.2455,-6.735
2.2460,-8.566
2.2465,-9.482
2.2470,-9.482
2.2475,-9.787
2.2480,-11.62
2.2485,-13.14
2.2490,-13.14
2.2495,-11.31
2.2500,-9.787
2.2505,-10.09
2.2510,-11.31
2.2515,-11.01
2.2520,-8.566
2.2525,-4.904
2.2530,-1.241
2.2535,2.421
2.2540,6.999
2.2545,10.66
2.2550,11.88
2.2555,9.135
2.2560,5.168
2.2565,3.031
2.2570,3.642
2.2575,6.388
2.2580,8.83
2.2585,8.83
2.2590,7.304
2.2595,5.778
2.2600,5.473
2.2605,5.473
2.2610,4.557
2.2615,3.337
2.2620,2.726
2.2625,2.421
2.2630,1.505
2.2635,0.5898
2.2640,0.2846
2.2645,0.2846
2.2650,-0.3258
2.2655,-0.3258
2.2660,2.116
2.2665,6.388
2.2670,8.83
2.2675,8.22
2.2680,7.914
2.2685,9.746
2.2690,12.19
2.2695,13.41
2.2700,14.93
2.2705,16.46
2.2710,16.46
2.2715,13.71
2.2720,10.97
2.2725,10.36
2.2730,10.97
2.2735,9.746
2.2740,6.388
2.2745,3.337
2.2750,0.5898
2.2755,-1.241
2.2760,-3.073
2.2765,-3.073
2.2770,-2.157
2.2775,-1.547
2.2780,-1.852
2.2785,-2.767
2.2790,-3.988
2.2795,-5.209
2.2800,-5.209
2.2805,-3.073
2.2810,-1.852
2.2815,-3.378
2.2820,-6.43
2.2825,-7.956
2.2830,-7.04
2.2835,-5.819
2.2840,-4.904
2.2845,-3.683
2.2850,-1.852
2.2855,-1.547
2.2860,-3.378
2.2865,-4.293
2.2870,-3.378
2.2875,-1.852
2.2880,-1.547
2.2885,-2.462
2.2890,-2.767
2.2895,-2.157
2.2900,-1.547
2.2905,-0.9362
2.2910,-0.02059
2.2915,0.2846
2.2920,0.5898
2.2925,0.2846
2.2930,0.895
2.2935,1.811
2.2940,2.421
2.2945,2.421
2.2950,0.895
2.2955,-0.3258
2.2960,-0.9362
2.2965,-0.02059
2.2970,0.895
2.2975,0.5898
2.2980,-0.3258
2.2985,-0.631
2.2990,-0.02059
2.2995,-0.02059
2.3000,-1.852
2.3005,-3.073
2.3010,-1.241
2.3015,2.421
2.3020,5.473
2.3025,6.388
2.3030,6.388
2.3035,6.694
2.3040,7.304
2.3045,7.914
2.3050,7.914
2.3055,7.304
2.3060,5.778
2.3065,3.947
2.3070,1.811
2.3075,-0.02059
2.3080,-0.631
2.3085,-0.631
2.3090,-0.9362
2.3095,-1.852
2.3100,-3.073
2.3105,-3.378
2.3110,-2.157
2.3115,-0.02059
2.3120,0.2846
2.3125,-0.9362
2.3130,-3.683
2.3135,-5.514
2.3140,-6.124
2.3145,-5.514
2.3150,-5.209
2.3155,-5.209
2.3160,-4.599
2.3165,-3.378
2.3170,-1.241
2.3175,-0.02059
2.3180,-0.02059
2.3185,-0.02059
2.3190,-0.631
2.3195,-0.9362
2.3200,-1.547
2.3205,-3.378
2.3210,-6.735
2.3215,-9.482
2.3220,-10.4
2.3225,-10.4
2.3230,-10.7
2.3235,-11.62
2.3240,-10.4
2.3245,-7.04
2.3250,-2.767
2.3255,0.2846
2.3260,2.421
2.3265,3.947
2.3270,4.252
2.3275,4.557
2.3280,5.778
2.3285,7.914
2.3290,9.746
2.3295,10.66
2.3300,11.27
2.3305,10.66
2.3310,7.304
2.3315,2.421
2.3320,-1.547
2.3325,-3.988
2.3330,-7.956
2.3335,-14.67
2.3340,-21.69
2.3345,-25.35
2.3350,-23.22
2.3355,-18.33
2.3360,-14.36
2.3365,-12.84
2.3370,-12.84
2.3375,-11.31
2.3380,-7.65
2.3385,-3.988
2.3390,-1.241
2.3395,-0.02059
2.3400,0.5898
2.3405,0.5898
2.3410,0.895
2.3415,1.505
2.3420,1.505
2.3425,-0.02059
2.3430,-1.852
2.3435,-2.462
2.3440,-2.157
2.3445,-3.988
2.3450,-7.956
2.3455,-10.7
2.3460,-9.787
2.3465,-7.65
2.3470,-7.65
2.3475,-7.956
2.3480,-7.04
2.3485,-4.904
2.3490,-3.378
2.3495,-1.852
2.3500,0.895
2.3505,3.642
2.3510,3.031
2.3515,0.5898
2.3520,-0.02059
2.3525,1.811
2.3530,3.642
2.3535,4.252
2.3540,4.863
2.3545,6.694
2.3550,8.83
2.3555,10.05
2.3560,10.66
2.3565,10.97
2.3570,11.27
2.3575,11.27
2.3580,12.19
2.3585,13.1
2.3590,13.41
2.3595,12.49
2.3600,11.27
2.3605,10.97
2.3610,12.19
2.3615,14.02
2.3620,14.93
2.3625,13.41
2.3630,9.135
2.3635,3.947
2.3640,0.5898
2.3645,-0.02059
2.3650,2.116
2.3655,6.388
2.3660,10.36
2.3665,11.58
2.3670,8.83
2.3675,4.557
2.3680,2.116
2.3685,0.5898
2.3690,-1.547
2.3695,-5.209
2.3700,-6.43
2.3705,-4.599
2.3710,-1.852
2.3715,-0.631
2.3720,-0.02059
2.3725,1.811
2.3730,3.947
2.3735,3.947
2.3740,2.421
2.3745,2.421
2.3750,3.947
2.3755,5.473
2.3760,6.083
2.3765,6.083
2.3770,6.388
2.3775,5.778
2.3780,4.252
2.3785,2.726
2.3790,1.811
2.3795,1.2
2.3800,0.5898
2.3805,-0.02059
2.3810,-0.3258
2.3815,-1.241
2.3820,-2.767
2.3825,-3.073
2.3830,-0.9362
2.3835,1.2
2.3840,1.2
2.3845,0.2846
2.3850,-0.02059
2.3855,0.895
2.3860,0.895
2.3865,-0.02059
2.3870,0.2846
2.3875,2.116
2.3880,1.811
2.3885,-1.241
2.3890,-5.819
2.3895,-8.261
2.3900,-8.871
2.3905,-9.787
2.3910,-10.7
2.3915,-9.482
2.3920,-6.43
2.3925,-3.683
2.3930,-2.767
2.3935,-2.767
2.3940,-2.767
2.3945,-3.073
2.3950,-2.157
2.3955,1.505
2.3960,6.999
2.3965,10.05
2.3970,9.44
2.3975,8.83
2.3980,9.746
2.3985,10.05
2.3990,8.83
2.3995,6.694
2.4000,5.778
2.4005,3.642
2.4010,-0.02059
2.4015,-4.293
2.4020,-6.124
2.4025,-6.735
2.4030,-8.566
2.4035,-11.01
2.4040,-11.31
2.4045,-9.787
2.4050,-9.176
2.4055,-10.09
2.4060,-10.4
2.4065,-9.176
2.4070,-8.566
2.4075,-10.09
2.4080,-11.01
2.4085,-9.787
2.4090,-8.261
2.4095,-8.871
2.4100,-10.7
2.4105,-11.31
2.4110,-9.176
2.4115,-7.345
2.4120,-6.735
2.4125,-6.735
2.4130,-5.819
2.4135,-4.904
2.4140,-5.819
2.4145,-7.956
2.4150,-9.482
2.4155,-9.176
2.4160,-8.871
2.4165,-10.4
2.4170,-12.53
2.4175,-12.23
2.4180,-7.956
2.4185,-2.462
2.4190,1.505
2.4195,4.252
2.4200,6.694
2.4205,8.525
2.4210,10.66
2.4215,13.71
2.4220,16.46
2.4225,16.15
2.4230,13.1
2.4235,11.58
2.4240,14.02
2.4245,17.38
2.4250,17.99
2.4255,17.07
2.4260,16.77
2.4265,15.24
2.4270,9.44
2.4275,0.2846
2.4280,-5.514
2.4285,-6.43
2.4290,-5.209
2.4295,-4.904
2.4300,-5.209
2.4305,-5.209
2.4310,-5.819
2.4315,-8.566
2.4320,-11.01
2.4325,-12.23
2.4330,-12.84
2.4335,-13.45
2.4340,-13.75
2.4345,-13.14
2.4350,-11.01
2.4355,-8.566
2.4360,-5.819
2.4365,-3.683
2.4370,-2.462
2.4375,-0.631
2.4380,2.726
2.4385,6.999
2.4390,8.83
2.4395,7.609
2.4400,5.473
2.4405,4.252
2.4410,3.031
2.4415,1.505
2.4420,-0.02059
2.4425,-0.02059
2.4430,0.2846
2.4435,1.2
2.4440,2.421
2.4445,3.642
2.4450,3.642
2.4455,2.421
2.4460,2.116
2.4465,4.863
2.4470,10.05
2.4475,15.85
2.4480,21.65
2.4485,26.84
2.4490,30.8
2.4495,32.64
2.4500,32.02
2.4505,31.41
2.4510,31.72
2.4515,33.25
2.4520,33.86
2.4525,32.94
2.4530,32.02
2.4535,30.5
2.4540,26.53
2.4545,19.82
2.4550,12.8
2.4555,5.473
2.4560,-3.988
2.4565,-18.64
2.4570,-33.29
2.4575,-41.22
2.4580,-39.09
2.4585,-32.07
2.4590,-26.27
2.4595,-24.13
2.4600,-24.44
2.4605,-25.96
2.4610,-26.57
2.4615,-24.13
2.4620,-19.86
2.4625,-16.81
2.4630,-16.2
2.4635,-15.89
2.4640,-14.36
2.4645,-13.14
2.4650,-12.53
2.4655,-11.01
2.4660,-7.345
2.4665,-2.462
2.4670,-0.02059
2.4675,0.2846
2.4680,0.2846
2.4685,1.2
2.4690,1.811
2.4695,2.421
2.4700,2.116
2.4705,1.2
2.4710,-0.3258
2.4715,-1.547
2.4720,-0.3258
2.4725,1.505
2.4730,2.726
2.4735,2.726
2.4740,3.642
2.4745,5.778
2.4750,7.304
2.4755,6.694
2.4760,6.388
2.4765,6.999
2.4770,6.694
2.4775,5.168
2.4780,4.863
2.4785,7.609
2.4790,10.97
2.4795,10.66
2.4800,6.388
2.4805,2.116
2.4810,1.505
2.4815,2.116
2.4820,1.2
2.4825,-1.852
2.4830,-4.599
2.4835,-5.819
2.4840,-6.43
2.4845,-7.956
2.4850,-9.482
2.4855,-10.09
2.4860,-11.01
2.4865,-12.53
2.4870,-14.36
2.4875,-15.28
2.4880,-14.98
2.4885,-14.36
2.4890,-13.14
2.4895,-11.31
2.4900,-8.871
2.4905,-7.345
2.4910,-6.43
2.4915,-6.124
2.4920,-5.209
2.4925,-3.683
2.4930,-1.547
2.4935,0.5898
2.4940,2.421
2.4945,3.031
2.4950,3.337
2.4955,5.168
2.4960,7.609
2.4965,9.44
2.4970,10.97
2.4975,13.1
2.4980,14.93
2.4985,15.24
2.4990,13.71
2.4995,13.71
2.5000,14.93
2.5005,14.63
2.5010,12.8
2.5015,12.19
2.5020,14.02
2.5025,17.07
2.5030,19.21
2.5035,20.12
2.5040,20.43
2.5045,20.12
2.5050,19.82
2.5055,20.73
2.5060,22.26
2.5065,20.73
2.5070,16.46
2.5075,13.71
2.5080,14.02
2.5085,12.49
2.5090,5.168
2.5095,-5.209
2.5100,-14.06
2.5105,-21.99
2.5110,-32.68
2.5115,-42.44
2.5120,-42.75
2.5125,-32.07
2.5130,-17.11
2.5135,-5.819
2.5140,0.2846
2.5145,2.726
2.5150,1.2
2.5155,-3.073
2.5160,-7.04
2.5165,-8.261
2.5170,-7.345
2.5175,-8.261
2.5180,-11.01
2.5185,-13.75
2.5190,-13.75
2.5195,-11.62
2.5200,-9.176
2.5205,-7.956
2.5210,-7.345
2.5215,-7.04
2.5220,-6.735
2.5225,-6.43
2.5230,-5.514
2.5235,-3.073
2.5240,-0.02059
2.5245,2.726
2.5250,4.557
2.5255,5.168
2.5260,4.252
2.5265,1.2
2.5270,-3.073
2.5275,-7.04
2.5280,-8.261
2.5285,-6.735
2.5290,-4.904
2.5295,-4.904
2.5300,-5.819
2.5305,-7.04
2.5310,-6.735
2.5315,-4.904
2.5320,-2.157
2.5325,-0.631
2.5330,-0.631
2.5335,-0.631
2.5340,0.2846
2.5345,1.505
2.5350,1.811
2.5355,1.811
2.5360,2.421
2.5365,2.726
2.5370,1.2
2.5375,-0.631
2.5380,-1.241
2.5385,-0.02059
2.5390,2.116
2.5395,4.252
2.5400,5.778
2.5405,6.694
2.5410,6.999
2.5415,5.778
2.5420,3.947
2.5425,3.031
2.5430,3.337
2.5435,4.557
2.5440,5.778
2.5445,6.999
2.5450,7.609
2.5455,7.304
2.5460,7.609
2.5465,9.135
2.5470,10.97
2.5475,12.49
2.5480,13.71
2.5485,14.93
2.5490,16.15
2.5495,15.85
2.5500,15.24
2.5505,15.24
2.5510,15.24
2.5515,13.41
2.5520,9.746
2.5525,6.999
2.5530,5.778
2.5535,6.083
2.5540,7.304
2.5545,10.05
2.5550,13.71
2.5555,16.77
2.5560,17.99
2.5565,19.82
2.5570,22.87
2.5575,25.92
2.5580,27.45
2.5585,28.06
2.5590,25.62
2.5595,15.54
2.5600,-2.462
2.5605,-19.25
2.5610,-25.66
2.5615,-25.35
2.5620,-30.54
2.5625,-45.8
2.5630,-61.98
2.5635,-67.77
2.5640,-63.2
2.5645,-53.12
2.5650,-40.31
2.5655,-26.57
2.5660,-14.98
2.5665,-7.65
2.5670,-1.547
2.5675,6.694
2.5680,15.85
2.5685,20.43
2.5690,18.29
2.5695,11.88
2.5700,3.947
2.5705,-4.293
2.5710,-11.92
2.5715,-14.98
2.5720,-11.92
2.5725,-5.209
2.5730,2.421
2.5735,9.135
2.5740,13.1
2.5745,13.41
2.5750,11.88
2.5755,12.19
2.5760,15.24
2.5765,19.21
2.5770,21.34
2.5775,21.34
2.5780,18.29
2.5785,12.49
2.5790,5.778
2.5795,3.031
2.5800,5.473
2.5805,8.525
2.5810,9.135
2.5815,8.83
2.5820,11.58
2.5825,14.32
2.5830,11.27
2.5835,0.895
2.5840,-9.482
2.5845,-15.28
2.5850,-18.64
2.5855,-24.13
2.5860,-30.85
2.5865,-32.98
2.5870,-29.32
2.5875,-26.88
2.5880,-32.98
2.5885,-48.24
2.5890,-65.03
2.5895,-75.1
2.5900,-76.93
2.5905,-75.1
2.5910,-74.18
2.5915,-73.88
2.5920,-69.91
2.5925,-60.75
2.5930,-50.38
2.5935,-43.05
2.5940,-39.09
2.5945,-33.59
2.5950,-24.13
2.5955,-13.14
2.5960,-3.988
2.5965,2.116
2.5970,7.609
2.5975,12.19
2.5980,15.24
2.5985,16.77
2.5990,19.51
2.5995,23.78
2.6000,26.84
2.6005,26.53
2.6010,24.09
2.6015,22.26
2.6020,22.56
2.6025,23.78
2.6030,25.62
2.6035,28.06
2.6040,28.97
2.6045,28.06
2.6050,26.53
2.6055,26.23
2.6060,27.14
2.6065,27.45
2.6070,26.84
2.6075,26.23
2.6080,26.23
2.6085,25.31
2.6090,24.09
2.6095,23.17
2.6100,23.17
2.6105,23.17
2.6110,21.95
2.6115,19.51
2.6120,16.46
2.6125,14.63
2.6130,14.63
2.6135,17.07
2.6140,18.9
2.6145,18.29
2.6150,15.85
2.6155,14.93
2.6160,16.46
2.6165,17.99
2.6170,17.07
2.6175,14.02
2.6180,11.88
2.6185,11.88
2.6190,13.1
2.6195,13.71
2.6200,13.71
2.6205,12.8
2.6210,12.19
2.6215,12.49
2.6220,13.1
2.6225,13.41
2.6230,13.1
2.6235,12.8
2.6240,12.8
2.6245,12.8
2.6250,11.58
2.6255,10.66
2.6260,11.88
2.6265,14.02
2.6270,14.63
2.6275,13.71
2.6280,12.8
2.6285,12.8
2.6290,12.19
2.6295,11.27
2.6300,11.58
2.6305,11.88
2.6310,10.05
2.6315,6.388
2.6320,4.557
2.6325,5.778
2.6330,6.388
2.6335,3.642
2.6340,-1.547
2.6345,-5.514
2.6350,-6.735
2.6355,-6.735
2.6360,-6.124
2.6365,-5.209
2.6370,-4.599
2.6375,-3.988
2.6380,-2.157
2.6385,0.2846
2.6390,2.726
2.6395,2.726
2.6400,1.811
2.6405,2.726
2.6410,6.083
2.6415,8.22
2.6420,7.304
2.6425,5.168
2.6430,2.726
2.6435,-0.3258
2.6440,-4.904
2.6445,-9.787
2.6450,-12.53
2.6455,-13.14
2.6460,-13.14
2.6465,-13.75
2.6470,-15.59
2.6475,-17.72
2.6480,-19.25
2.6485,-19.55
2.6490,-18.94
2.6495,-18.03
2.6500,-17.42
2.6505,-15.59
2.6510,-13.14
2.6515,-10.7
2.6520,-9.176
2.6525,-7.345
2.6530,-4.599
2.6535,-3.073
2.6540,-4.293
2.6545,-7.345
2.6550,-9.482
2.6555,-9.787
2.6560,-9.176
2.6565,-8.566
2.6570,-7.65
2.6575,-4.293
2.6580,0.895
2.6585,6.388
2.6590,10.36
2.6595,12.19
2.6600,13.41
2.6605,14.63
2.6610,14.63
2.6615,14.02
2.6620,12.49
2.6625,10.05
2.6630,6.388
2.6635,3.031
2.6640,1.505
2.6645,0.2846
2.6650,-3.073
2.6655,-9.787
2.6660,-14.98
2.6665,-16.5
2.6670,-16.5
2.6675,-17.42
2.6680,-16.5
2.6685,-12.23
2.6690,-8.871
2.6695,-13.14
2.6700,-23.52
2.6705,-30.23
2.6710,-27.18
2.6715,-18.03
2.6720,-10.4
2.6725,-6.43
2.6730,-4.904
2.6735,-4.599
2.6740,-5.514
2.6745,-6.735
2.6750,-6.124
2.6755,-3.988
2.6760,-1.852
2.6765,-0.02059
2.6770,0.5898
2.6775,0.2846
2.6780,-0.9362
2.6785,-2.462
2.6790,-3.683
2.6795,-4.904
2.6800,-6.735
2.6805,-7.956
2.6810,-7.345
2.6815,-5.514
2.6820,-3.683
2.6825,-1.852
2.6830,-0.631
2.6835,-0.02059
2.6840,-0.02059
2.6845,0.2846
2.6850,1.811
2.6855,3.337
2.6860,2.421
2.6865,-0.631
2.6870,-3.988
2.6875,-6.124
2.6880,-8.261
2.6885,-10.4
2.6890,-11.31
2.6895,-11.31
2.6900,-12.84
2.6905,-16.81
2.6910,-19.55
2.6915,-16.2
2.6920,-8.261
2.6925,-1.241
2.6930,1.811
2.6935,4.557
2.6940,9.135
2.6945,13.1
2.6950,14.63
2.6955,14.63
2.6960,16.46
2.6965,19.82
2.6970,22.87
2.6975,23.78
2.6980,22.26
2.6985,18.9
2.6990,14.63
2.6995,10.97
2.7000,6.694
2.7005,-0.02059
2.7010,-11.01
2.7015,-22.91
2.7020,-29.62
2.7025,-29.01
2.7030,-24.74
2.7035,-21.08
2.7040,-18.94
2.7045,-17.11
2.7050,-13.75
2.7055,-9.787
2.7060,-7.956
2.7065,-8.261
2.7070,-7.345
2.7075,-4.293
2.7080,-0.02059
2.7085,3.337
2.7090,6.388
2.7095,10.97
2.7100,16.46
2.7105,21.65
2.7110,25.92
2.7115,31.11
2.7120,35.99
2.7125,38.43
2.7130,37.82
2.7135,38.13
2.7140,41.49
2.7145,44.84
2.7150,44.84
2.7155,43.93
2.7160,45.15
2.7165,48.51
2.7170,47.59
2.7175,39.96
2.7180,28.36
2.7185,16.15
2.7190,5.778
2.7195,-2.157
2.7200,-9.176
2.7205,-16.2
2.7210,-25.35
2.7215,-35.12
2.7220,-44.27
2.7225,-54.35
2.7230,-68.08
2.7235,-81.51
2.7240,-86.39
2.7245,-80.29
2.7250,-69.6
2.7255,-61.98
2.7260,-56.18
2.7265,-47.94
2.7270,-38.78
2.7275,-33.29
2.7280,-31.15
2.7285,-27.49
2.7290,-20.16
2.7295,-11.31
2.7300,-4.599
2.7305,-1.241
2.7310,-0.02059
2.7315,2.726
2.7320,7.304
2.7325,11.88
2.7330,13.1
2.7335,11.88
2.7340,12.8
2.7345,18.29
2.7350,24.7
2.7355,28.06
2.7360,29.28
2.7365,29.89
2.7370,29.89
2.7375,28.36
2.7380,28.06
2.7385,31.41
2.7390,33.55
2.7395,29.89
2.7400,22.26
2.7405,16.15
2.7410,11.88
2.7415,6.388
2.7420,0.895
2.7425,-0.02059
2.7430,1.2
2.7435,0.2846
2.7440,-3.988
2.7445,-7.04
2.7450,-5.514
2.7455,-3.683
2.7460,-4.904
2.7465,-7.65
2.7470,-7.65
2.7475,-3.073
2.7480,3.337
2.7485,9.135
2.7490,12.49
2.7495,13.71
2.7500,14.93
2.7505,17.38
2.7510,20.12
2.7515,20.73
2.7520,19.21
2.7525,18.9
2.7530,18.9
2.7535,16.46
2.7540,10.97
2.7545,4.863
2.7550,0.5898
2.7555,-2.462
2.7560,-5.514
2.7565,-8.261
2.7570,-9.787
2.7575,-10.4
2.7580,-10.4
2.7585,-12.23
2.7590,-18.33
2.7595,-26.88
2.7600,-31.76
2.7605,-28.4
2.7610,-21.08
2.7615,-16.2
2.7620,-14.67
2.7625,-11.62
2.7630,-5.514
2.7635,-0.02059
2.7640,2.726
2.7645,4.863
2.7650,7.914
2.7655,8.525
2.7660,6.388
2.7665,5.473
2.7670,8.525
2.7675,12.49
2.7680,13.1
2.7685,12.49
2.7690,13.41
2.7695,14.93
2.7700,14.93
2.7705,16.77
2.7710,23.48
2.7715,32.94
2.7720,39.65
2.7725,44.84
2.7730,50.95
2.7735,55.52
2.7740,52.47
2.7745,43.32
2.7750,34.77
2.7755,27.75
2.7760,14.02
2.7765,-6.735
2.7770,-26.88
2.7775,-40
2.7780,-50.07
2.7785,-61.98
2.7790,-70.52
2.7795,-68.69
2.7800,-59.84
2.7805,-54.35
2.7810,-54.65
2.7815,-55.26
2.7820,-52.51
2.7825,-49.46
2.7830,-47.94
2.7835,-44.27
2.7840,-34.51
2.7845,-19.55
2.7850,-4.293
2.7855,7.914
2.7860,16.46
2.7865,21.95
2.7870,27.14
2.7875,32.64
2.7880,37.52
2.7885,38.74
2.7890,36.91
2.7895,35.69
2.7900,38.13
2.7905,42.1
2.7910,44.54
2.7915,43.62
2.7920,39.65
2.7925,33.86
2.7930,28.06
2.7935,24.39
2.7940,22.56
2.7945,19.21
2.7950,12.8
2.7955,5.473
2.7960,0.895
2.7965,-1.547
2.7970,-3.988
2.7975,-6.43
2.7980,-8.566
2.7985,-12.53
2.7990,-18.33
2.7995,-23.52
2.8000,-24.44
2.8005,-22.91
2.8010,-21.38
2.8015,-17.72
2.8020,-10.09
2.8025,-2.462
2.8030,-0.02059
2.8035,-0.02059
2.8040,5.778
2.8045,17.99
2.8050,26.23
2.8055,26.23
2.8060,27.45
2.8065,40.88
2.8070,62.54
2.8075,80.55
2.8080,89.1
2.8085,91.84
2.8090,89.4
2.8095,76.58
2.8100,51.56
2.8105,23.17
2.8110,2.421
2.8115,-7.65
2.8120,-13.45
2.8125,-19.55
2.8130,-26.57
2.8135,-37.25
2.8140,-57.7
2.8145,-91.58
2.8150,-127.9
2.8155,-148.7
2.8160,-143.2
2.8165,-118.1
2.8170,-88.22
2.8175,-66.86
2.8180,-59.84
2.8185,-67.16
2.8190,-80.59
2.8195,-85.78
2.8200,-72.66
2.8205,-43.97
2.8210,-14.98
2.8215,1.811
2.8220,4.557
2.8225,-0.02059
2.8230,-0.9362
2.8235,5.168
2.8240,14.93
2.8245,21.65
2.8250,22.26
2.8255,18.9
2.8260,14.02
2.8265,8.525
2.8270,4.557
2.8275,5.168
2.8280,8.525
2.8285,9.44
2.8290,5.778
2.8295,-0.631
2.8300,-8.261
2.8305,-12.23
2.8310,-6.124
2.8315,11.58
2.8320,32.94
2.8325,48.2
2.8330,59.19
2.8335,74.14
2.8340,92.45
2.8345,104.1
2.8350,105.6
2.8355,102.8
2.8360,97.95
2.8365,88.18
2.8370,76.89
2.8375,71.7
2.8380,65.9
2.8385,42.71
2.8390,3.031
2.8395,-27.49
2.8400,-34.81
2.8405,-34.2
2.8410,-43.05
2.8415,-55.26
2.8420,-57.4
2.8425,-55.87
2.8430,-64.72
2.8435,-77.54
2.8440,-78.46
2.8445,-70.22
2.8450,-69.3
2.8455,-75.71
2.8460,-72.96
2.8465,-57.09
2.8470,-42.14
2.8475,-36.03
2.8480,-30.85
2.8485,-20.16
2.8490,-14.06
2.8495,-20.16
2.8500,-29.01
2.8505,-26.57
2.8510,-13.14
2.8515,-1.241
2.8520,0.895
2.8525,-3.683
2.8530,-9.176
2.8535,-11.01
2.8540,-10.09
2.8545,-8.261
2.8550,-6.43
2.8555,-5.514
2.8560,-6.124
2.8565,-9.176
2.8570,-12.84
2.8575,-12.53
2.8580,-6.735
2.8585,-0.02059
2.8590,4.252
2.8595,6.999
2.8600,9.746
2.8605,10.05
2.8610,7.609
2.8615,7.304
2.8620,12.8
2.8625,19.51
2.8630,21.34
2.8635,19.51
2.8640,20.43
2.8645,23.48
2.8650,25.62
2.8655,27.14
2.8660,28.06
2.8665,21.34
2.8670,-0.02059
2.8675,-26.27
2.8680,-34.81
2.8685,-14.06
2.8690,21.04
2.8695,46.37
2.8700,50.64
2.8705,41.18
2.8710,28.06
2.8715,16.15
2.8720,8.525
2.8725,9.135
2.8730,18.6
2.8735,29.89
2.8740,35.99
2.8745,34.16
2.8750,28.06
2.8755,20.73
2.8760,14.02
2.8765,6.999
2.8770,0.5898
2.8775,-1.852
2.8780,0.2846
2.8785,4.557
2.8790,6.083
2.8795,6.999
2.8800,14.93
2.8805,35.08
2.8810,63.77
2.8815,92.45
2.8820,111.1
2.8825,113.5
2.8830,101
2.8835,81.77
2.8840,65.6
2.8845,52.78
2.8850,38.43
2.8855,21.04
2.8860,2.726
2.8865,-13.45
2.8870,-27.18
2.8875,-34.2
2.8880,-30.85
2.8885,-20.77
2.8890,-12.23
2.8895,-10.7
2.8900,-11.92
2.8905,-11.31
2.8910,-11.31
2.8915,-14.67
2.8920,-18.94
2.8925,-20.77
2.8930,-20.47
2.8935,-20.16
2.8940,-19.55
2.8945,-18.03
2.8950,-16.5
2.8955,-16.2
2.8960,-16.2
2.8965,-14.67
2.8970,-13.14
2.8975,-12.53
2.8980,-11.92
2.8985,-9.482
2.8990,-6.124
2.8995,-4.293
2.9000,-4.599
2.9005,-4.904
2.9010,-3.988
2.9015,-3.073
2.9020,-3.683
2.9025,-5.514
2.9030,-6.124
2.9035,-2.767
2.9040,3.642
2.9045,10.36
2.9050,12.49
2.9055,10.05
2.9060,7.304
2.9065,7.304
2.9070,9.135
2.9075,10.66
2.9080,8.22
2.9085,2.116
2.9090,-5.819
2.9095,-13.45
2.9100,-17.11
2.9105,-18.33
2.9110,-21.38
2.9115,-29.32
2.9120,-39.39
2.9125,-46.1
2.9130,-45.19
2.9135,-38.78
2.9140,-32.68
2.9145,-29.93
2.9150,-28.4
2.9155,-24.74
2.9160,-20.16
2.9165,-18.94
2.9170,-21.69
2.9175,-23.22
2.9180,-19.55
2.9185,-13.14
2.9190,-8.871
2.9195,-8.566
2.9200,-8.261
2.9205,-5.514
2.9210,-1.547
2.9215,0.2846
2.9220,0.2846
2.9225,0.895
2.9230,3.031
2.9235,4.863
2.9240,3.947
2.9245,0.895
2.9250,-0.9362
2.9255,-1.241
2.9260,-1.547
2.9265,-3.378
2.9270,-7.04
2.9275,-11.01
2.9280,-14.36
2.9285,-15.89
2.9290,-14.36
2.9295,-10.4
2.9300,-5.209
2.9305,-0.9362
2.9310,0.5898
2.9315,-0.02059
2.9320,-1.852
2.9325,-2.767
2.9330,-1.241
2.9335,0.2846
2.9340,0.2846
2.9345,0.2846
2.9350,1.811
2.9355,3.947
2.9360,3.337
2.9365,0.895
2.9370,0.5898
2.9375,2.421
2.9380,3.337
2.9385,1.811
2.9390,0.2846
2.9395,-0.02059
2.9400,-0.02059
2.9405,0.2846
2.9410,2.726
2.9415,8.22
2.9420,12.8
2.9425,13.71
2.9430,12.8
2.9435,12.8
2.9440,13.1
2.9445,10.66
2.9450,6.999
2.9455,5.168
2.9460,5.473
2.9465,4.557
2.9470,0.895
2.9475,-3.073
2.9480,-7.04
2.9485,-12.23
2.9490,-19.55
2.9495,-26.27
2.9500,-29.32
2.9505,-28.1
2.9510,-26.27
2.9515,-26.27
2.9520,-28.4
2.9525,-32.37
2.9530,-35.42
2.9535,-33.9
2.9540,-25.66
2.9545,-17.11
2.9550,-17.42
2.9555,-27.18
2.9560,-36.03
2.9565,-34.51
2.9570,-26.27
2.9575,-19.55
2.9580,-16.5
2.9585,-11.01
2.9590,-0.3258
2.9595,11.27
2.9600,18.29
2.9605,18.9
2.9610,19.51
2.9615,25.92
2.9620,37.21
2.9625,43.32
2.9630,35.08
2.9635,15.54
2.9640,-0.631
2.9645,-4.293
2.9650,0.5898
2.9655,5.168
2.9660,6.694
2.9665,10.66
2.9670,19.21
2.9675,29.58
2.9680,39.04
2.9685,46.98
2.9690,51.86
2.9695,51.56
2.9700,46.98
2.9705,43.32
2.9710,46.37
2.9715,57.05
2.9720,71.09
2.9725,80.86
2.9730,83.6
2.9735,79.64
2.9740,70.17
2.9745,54.91
2.9750,35.69
2.9755,20.73
2.9760,15.85
2.9765,17.38
2.9770,17.99
2.9775,15.85
2.9780,14.93
2.9785,18.9
2.9790,25.62
2.9795,29.58
2.9800,21.65
2.9805,-7.04
2.9810,-53.43
2.9815,-96.16
2.9820,-117.5
2.9825,-124.5
2.9830,-138.3
2.9835,-163
2.9840,-179.2
2.9845,-172.2
2.9850,-147.7
2.9855,-119.7
2.9860,-88.83
2.9865,-51.29
2.9870,-12.84
2.9875,15.85
2.9880,35.08
2.9885,54
2.9890,79.02
2.9895,105.9
2.9900,124.8
2.9905,129.4
2.9910,119.3
2.9915,102.5
2.9920,89.4
2.9925,78.72
2.9930,58.88
2.9935,24.09
2.9940,-12.84
2.9945,-32.37
2.9950,-28.71
2.9955,-13.14
2.9960,2.726
2.9965,15.85
2.9970,24.39
2.9975,25.92
2.9980,21.65
2.9985,18.9
2.9990,21.95
2.9995,27.14
3.0000,26.84
3.0005,19.21
3.0010,8.22
3.0015,-0.02059
3.0020,-2.462
3.0025,-2.157
3.0030,-3.683
3.0035,-7.65
3.0040,-11.01
3.0045,-11.01
3.0050,-10.09
3.0055,-11.92
3.0060,-15.89
3.0065,-21.08
3.0070,-32.98
3.0075,-53.43
3.0080,-74.79
3.0085,-87
3.0090,-93.1
3.0095,-102.6
3.0100,-111.4
3.0105,-105.6
3.0110,-83.64
3.0115,-59.84
3.0120,-45.8
3.0125,-37.86
3.0130,-27.49
3.0135,-14.98
3.0140,-0.9362
3.0145,17.07
3.0150,40.27
3.0155,59.19
3.0160,68.04
3.0165,72.62
3.0170,77.19
3.0175,77.8
3.0180,68.95
3.0185,55.52
3.0190,43.62
3.0195,32.33
3.0200,19.51
3.0205,10.66
3.0210,13.1
3.0215,21.95
3.0220,27.75
3.0225,27.75
3.0230,27.14
3.0235,26.84
3.0240,22.56
3.0245,13.41
3.0250,4.863
3.0255,0.5898
3.0260,-1.852
3.0265,-4.904
3.0270,-7.04
3.0275,-7.65
3.0280,-9.176
3.0285,-12.84
3.0290,-14.67
3.0295,-11.62
3.0300,-8.261
3.0305,-8.871
3.0310,-13.45
3.0315,-16.81
3.0320,-17.72
3.0325,-18.33
3.0330,-19.25
3.0335,-17.42
3.0340,-10.09
3.0345,-0.02059
3.0350,10.05
3.0355,15.24
3.0360,12.8
3.0365,4.557
3.0370,-0.9362
3.0375,2.116
3.0380,9.135
3.0385,8.22
3.0390,-4.293
3.0395,-18.64
3.0400,-25.96
3.0405,-32.37
3.0410,-46.72
3.0415,-66.55
3.0420,-79.68
3.0425,-79.07
3.0430,-68.69
3.0435,-57.09
3.0440,-51.6
3.0445,-52.21
3.0450,-48.85
3.0455,-32.07
3.0460,-7.956
3.0465,5.473
3.0470,3.947
3.0475,3.031
3.0480,13.1
3.0485,23.78
3.0490,23.78
3.0495,21.95
3.0500,30.5
3.0505,41.18
3.0510,40.88
3.0515,35.99
3.0520,44.54
3.0525,61.93
3.0530,65.9
3.0535,48.81
3.0540,27.45
3.0545,16.15
3.0550,11.27
3.0555,4.863
3.0560,-2.462
3.0565,-7.345
3.0570,-9.176
3.0575,-7.956
3.0580,-3.378
3.0585,-0.3258
3.0590,-1.852
3.0595,-1.852
3.0600,12.49
3.0605,53.69
3.0610,129.7
3.0615,238.6
3.0620,348.2
3.0625,396.7
3.0630,337.5
3.0635,188.6
3.0640,18.6
3.0645,-114.2
3.0650,-199.3
3.0655,-254.2
3.0660,-288.7
3.0665,-303.1
3.0670,-296.1
3.0675,-270.7
3.0680,-230.7
3.0685,-183.1
3.0690,-138
3.0695,-99.21
3.0700,-63.2
3.0705,-26.27
3.0710,9.746
3.0715,39.96
3.0720,62.54
3.0725,75.67
3.0730,76.28
3.0735,61.93
3.0740,37.21
3.0745,8.525
3.0750,-25.35
3.0755,-69.6
3.0760,-114.5
3.0765,-130.9
3.0770,-95.55
3.0775,-21.99
3.0780,46.06
3.0785,75.97
3.0790,72.92
3.0795,61.02
3.0800,51.25
3.0805,40.57
3.0810,28.67
3.0815,22.56
3.0820,23.48
3.0825,25.01
3.0830,23.48
3.0835,22.87
3.0840,25.31
3.0845,26.84
3.0850,25.31
3.0855,24.7
3.0860,27.14
3.0865,29.28
3.0870,27.75
3.0875,25.31
3.0880,25.92
3.0885,27.45
3.0890,27.45
3.0895,25.92
3.0900,25.92
3.0905,26.23
3.0910,25.31
3.0915,23.48
3.0920,22.87
3.0925,22.87
3.0930,21.65
3.0935,19.21
3.0940,18.6
3.0945,19.51
3.0950,19.82
3.0955,17.99
3.0960,16.46
3.0965,16.46
3.0970,16.46
3.0975,14.63
3.0980,12.49
3.0985,13.1
3.0990,15.24
3.0995,15.54
3.1000,12.8
3.1005,9.44
3.1010,8.525
3.1015,8.83
3.1020,8.83
3.1025,7.609
3.1030,5.778
3.1035,4.863
3.1040,4.557
3.1045,4.252
3.1050,3.031
3.1055,1.505
3.1060,0.5898
3.1065,0.895
3.1070,1.2
3.1075,0.5898
3.1080,-0.02059
3.1085,0.5898
3.1090,1.811
3.1095,1.811
3.1100,0.2846
3.1105,-0.631
3.1110,-1.241
3.1115,-0.9362
3.1120,-0.9362
3.1125,-1.852
3.1130,-3.073
3.1135,-3.988
3.1140,-3.378
3.1145,-1.852
3.1150,-1.547
3.1155,-3.073
3.1160,-4.293
3.1165,-3.988
3.1170,-2.462
3.1175,-2.157
3.1180,-3.378
3.1185,-3.988
3.1190,-3.378
3.1195,-3.073
3.1200,-3.683
3.1205,-4.599
3.1210,-4.293
3.1215,-3.683
3.1220,-3.683
3.1225,-5.819
3.1230,-7.956
3.1235,-8.871
3.1240,-8.566
3.1245,-9.176
3.1250,-10.09
3.1255,-10.7
3.1260,-11.31
3.1265,-12.84
3.1270,-14.98
3.1275,-14.06
3.1280,-10.7
3.1285,-9.787
3.1290,-10.7
3.1295,-6.735
3.1300,6.999
3.1305,23.17
3.1310,29.58
3.1315,25.01
3.1320,19.51
3.1325,18.9
3.1330,19.51
3.1335,18.29
3.1340,16.15
3.1345,14.93
3.1350,9.746
3.1355,-2.157
3.1360,-15.89
3.1365,-22.91
3.1370,-22.6
3.1375,-20.16
3.1380,-17.11
3.1385,-10.09
3.1390,-0.9362
3.1395,1.811
3.1400,-6.43
3.1405,-19.86
3.1410,-28.1
3.1415,-29.32
3.1420,-27.79
3.1425,-28.1
3.1430,-31.15
3.1435,-38.17
3.1440,-46.72
3.1445,-51.6
3.1450,-47.33
3.1455,-36.64
3.1460,-26.88
3.1465,-20.16
3.1470,-14.36
3.1475,-10.7
3.1480,-17.72
3.1485,-36.95
3.1490,-58.01
3.1495,-66.86
3.1500,-59.53
3.1505,-46.1
3.1510,-38.17
3.1515,-41.22
3.1520,-50.99
3.1525,-55.26
3.1530,-44.27
3.1535,-21.38
3.1540,1.811
3.1545,20.73
3.1550,43.62
3.1555,77.8
3.1560,114.1
3.1565,131.2
3.1570,118.7
3.1575,89.4
3.1580,64.99
3.1585,54.91
3.1590,52.17
3.1595,45.15
3.1600,31.41
3.1605,18.29
3.1610,11.58
3.1615,9.135
3.1620,4.557
3.1625,-4.599
3.1630,-12.23
3.1635,-10.4
3.1640,1.2
3.1645,15.85
3.1650,25.31
3.1655,27.14
3.1660,23.78
3.1665,18.6
3.1670,11.58
3.1675,3.642
3.1680,-5.514
3.1685,-16.5
3.1690,-27.18
3.1695,-31.46
3.1700,-25.96
3.1705,-16.2
3.1710,-12.53
3.1715,-18.03
3.1720,-22.91
3.1725,-17.42
3.1730,-3.988
3.1735,5.473
3.1740,5.778
3.1745,0.895
3.1750,-3.988
3.1755,-7.04
3.1760,-8.871
3.1765,-9.787
3.1770,-10.4
3.1775,-11.62
3.1780,-12.53
3.1785,-11.92
3.1790,-10.4
3.1795,-10.4
3.1800,-11.31
3.1805,-11.01
3.1810,-9.176
3.1815,-7.65
3.1820,-7.345
3.1825,-7.65
3.1830,-7.04
3.1835,-6.43
3.1840,-6.43
3.1845,-6.124
3.1850,-5.819
3.1855,-5.209
3.1860,-4.293
3.1865,-3.378
3.1870,-3.683
3.1875,-4.904
3.1880,-5.514
3.1885,-3.683
3.1890,-1.241
3.1895,-1.547
3.1900,-3.683
3.1905,-4.293
3.1910,-3.073
3.1915,-2.157
3.1920,-3.683
3.1925,-5.209
3.1930,-4.293
3.1935,-2.157
3.1940,-1.852
3.1945,-2.462
3.1950,-2.767
3.1955,-1.852
3.1960,-1.241
3.1965,-1.547
3.1970,-0.9362
3.1975,-0.02059
3.1980,-0.3258
3.1985,-1.547
3.1990,-1.547
3.1995,0.2846
3.2000,3.031
3.2005,5.168
3.2010,6.694
3.2015,7.914
3.2020,7.304
3.2025,5.168
3.2030,3.947
3.2035,5.168
3.2040,6.999
3.2045,7.304
3.2050,6.388
3.2055,5.473
3.2060,5.473
3.2065,4.863
3.2070,3.947
3.2075,3.642
3.2080,3.642
3.2085,3.642
3.2090,3.031
3.2095,2.726
3.2100,2.116
3.2105,1.811
3.2110,0.895
3.2115,-0.02059
3.2120,-0.631
3.2125,-0.631
3.2130,0.2846
3.2135,1.505
3.2140,1.811
3.2145,1.811
3.2150,3.642
3.2155,6.388
3.2160,6.999
3.2165,4.252
3.2170,1.2
3.2175,0.895
3.2180,2.421
3.2185,3.947
3.2190,4.863
3.2195,6.999
3.2200,10.66
3.2205,14.02
3.2210,15.54
3.2215,16.46
3.2220,18.9
3.2225,23.17
3.2230,28.06
3.2235,30.8
3.2240,31.11
3.2245,26.53
3.2250,17.38
3.2255,6.999
3.2260,1.2
3.2265,1.2
3.2270,2.421
3.2275,-0.02059
3.2280,-3.378
3.2285,-3.988
3.2290,-2.462
3.2295,-5.514
3.2300,-14.67
3.2305,-24.13
3.2310,-27.79
3.2315,-24.44
3.2320,-17.42
3.2325,-11.01
3.2330,-8.261
3.2335,-10.09
3.2340,-13.75
3.2345,-14.67
3.2350,-11.92
3.2355,-8.871
3.2360,-7.345
3.2365,-4.904
3.2370,-0.9362
3.2375,2.116
3.2380,2.726
3.2385,0.895
3.2390,-0.631
3.2395,-0.9362
3.2400,-0.631
3.2405,-0.02059
3.2410,1.2
3.2415,2.726
3.2420,3.337
3.2425,3.031
3.2430,3.031
3.2435,3.642
3.2440,4.557
3.2445,4.252
3.2450,2.421
3.2455,0.5898
3.2460,0.895
3.2465,2.726
3.2470,4.557
3.2475,5.168
3.2480,5.168
3.2485,4.863
3.2490,3.947
3.2495,3.031
3.2500,2.726
3.2505,3.337
3.2510,3.642
3.2515,2.726
3.2520,1.811
3.2525,2.421
3.2530,3.642
3.2535,3.337
3.2540,2.421
3.2545,1.811
3.2550,2.421
3.2555,2.116
3.2560,0.895
3.2565,0.2846
3.2570,1.2
3.2575,2.116
3.2580,2.421
3.2585,2.421
3.2590,2.421
3.2595,1.811
3.2600,0.2846
3.2605,-0.02059
3.2610,0.2846
3.2615,1.505
3.2620,1.2
3.2625,-0.02059
3.2630,0.895
3.2635,3.031
3.2640,3.947
3.2645,3.031
3.2650,2.116
3.2655,2.726
3.2660,3.337
3.2665,1.505
3.2670,-0.3258
3.2675,-0.631
3.2680,-0.02059
3.2685,-0.02059
3.2690,-1.241
3.2695,-1.241
3.2700,-0.02059
3.2705,-0.02059
3.2710,-0.3258
3.2715,-0.3258
3.2720,0.2846
3.2725,0.5898
3.2730,-0.02059
3.2735,-1.241
3.2740,-1.241
3.2745,-0.02059
3.2750,-0.02059
3.2755,-0.02059
3.2760,-0.9362
3.2765,-0.9362
3.2770,-0.631
3.2775,-0.9362
3.2780,-1.547
3.2785,-1.547
3.2790,-0.9362
3.2795,-0.3258
3.2800,-1.241
3.2805,-2.462
3.2810,-2.767
3.2815,-2.462
3.2820,-2.157
3.2825,-2.767
3.2830,-3.073
3.2835,-2.767
3.2840,-2.157
3.2845,-2.157
3.2850,-2.767
3.2855,-3.073
3.2860,-3.073
3.2865,-3.378
3.2870,-3.378
3.2875,-2.767
3.2880,-2.462
3.2885,-2.462
3.2890,-2.767
3.2895,-2.767
3.2900,-2.157
3.2905,-1.241
3.2910,-0.631
3.2915,-0.9362
3.2920,-1.547
3.2925,-1.852
3.2930,-1.547
3.2935,-0.9362
3.2940,-0.9362
3.2945,-1.547
3.2950,-1.852
3.2955,-2.157
3.2960,-2.157
3.2965,-2.462
3.2970,-2.767
3.2975,-2.767
3.2980,-3.073
3.2985,-3.073
3.2990,-2.462
3.2995,-1.241
3.3000,-0.3258
3.3005,-0.9362
3.3010,-2.462
3.3015,-3.683
3.3020,-3.683
3.3025,-2.462
3.3030,-0.9362
3.3035,-0.02059
3.3040,-0.9362
3.3045,-2.462
3.3050,-2.767
3.3055,-1.852
3.3060,-1.241
3.3065,-1.852
3.3070,-2.767
3.3075,-2.767
3.3080,-1.241
3.3085,-0.02059
3.3090,-0.3258
3.3095,-1.241
3.3100,-2.157
3.3105,-2.462
3.3110,-2.157
3.3115,-2.157
3.3120,-2.157
3.3125,-1.241
3.3130,-0.02059
3.3135,0.2846
3.3140,-0.3258
3.3145,-1.241
3.3150,-0.9362
3.3155,-0.02059
3.3160,-0.02059
3.3165,-1.241
3.3170,-1.852
3.3175,-1.241
3.3180,-0.3258
3.3185,-0.3258
3.3190,-0.9362
3.3195,-0.631
3.3200,-0.3258
3.3205,-0.3258
3.3210,-0.631
3.3215,-0.9362
3.3220,-0.631
3.3225,-0.631
3.3230,-0.631
3.3235,-0.9362
3.3240,-1.547
3.3245,-1.852
3.3250,-2.462
3.3255,-2.157
3.3260,-0.9362
3.3265,0.5898
3.3270,1.505
3.3275,0.895
3.3280,0.2846
3.3285,-0.02059
3.3290,-0.3258
3.3295,-1.241
3.3300,-1.547
3.3305,-0.631
3.3310,-0.02059
3.3315,-1.547
3.3320,-2.767
3.3325,-2.157
3.3330,-0.631
3.3335,-0.631
3.3340,-2.157
3.3345,-2.462
3.3350,-1.852
3.3355,-2.157
3.3360,-3.378
3.3365,-3.988
3.3370,-3.378
3.3375,-2.462
3.3380,-2.157
3.3385,-1.241
3.3390,-0.02059
3.3395,0.5898
3.3400,1.811
3.3405,5.168
3.3410,10.97
3.3415,17.99
3.3420,25.31
3.3425,29.89
3.3430,27.75
3.3435,16.15
3.3440,-0.3258
3.3445,-15.59
3.3450,-25.96
3.3455,-32.37
3.3460,-34.81
3.3465,-35.12
3.3470,-36.03
3.3475,-37.25
3.3480,-34.81
3.3485,-26.88
3.3490,-18.94
3.3495,-14.06
3.3500,-7.956
3.3505,2.726
3.3510,14.32
3.3515,22.26
3.3520,31.72
3.3525,48.2
3.3530,63.77
3.3535,65.9
3.3540,55.22
3.3545,43.01
3.3550,36.3
3.3555,29.28
3.3560,18.6
3.3565,7.609
3.3570,0.2846
3.3575,-5.819
3.3580,-13.14
3.3585,-17.11
3.3590,-14.67
3.3595,-8.261
3.3600,-3.683
3.3605,-1.241
3.3610,-0.02059
3.3615,0.895
3.3620,0.5898
3.3625,-0.3258
3.3630,-1.241
3.3635,-0.9362
3.3640,0.5898
3.3645,3.337
3.3650,4.252
3.3655,0.895
3.3660,-4.904
3.3665,-9.787
3.3670,-11.31
3.3675,-12.53
3.3680,-17.72
3.3685,-27.18
3.3690,-37.56
3.3695,-46.1
3.3700,-52.21
3.3705,-53.12
3.3710,-44.27
3.3715,-25.05
3.3720,-3.378
3.3725,8.525
3.3730,9.746
3.3735,14.02
3.3740,33.25
3.3745,63.15
3.3750,86.96
3.3755,94.89
3.3760,89.4
3.3765,75.97
3.3770,55.83
3.3775,32.33
3.3780,13.1
3.3785,0.5898
3.3790,-11.01
3.3795,-26.88
3.3800,-40.92
3.3805,-43.66
3.3810,-34.81
3.3815,-23.83
3.3820,-16.2
3.3825,-7.956
3.3830,1.811
3.3835,9.135
3.3840,8.22
3.3845,2.726
3.3850,0.895
3.3855,2.421
3.3860,1.2
3.3865,-5.514
3.3870,-13.14
3.3875,-17.42
3.3880,-19.55
3.3885,-21.99
3.3890,-23.83
3.3895,-21.69
3.3900,-16.5
3.3905,-11.31
3.3910,-6.735
3.3915,-2.767
3.3920,-1.241
3.3925,-2.462
3.3930,-3.988
3.3935,-3.378
3.3940,-1.547
3.3945,-1.241
3.3950,-2.462
3.3955,-3.683
3.3960,-3.378
3.3965,-3.073
3.3970,-2.462
3.3975,-1.852
3.3980,-1.241
3.3985,-1.852
3.3990,-2.462
3.3995,-2.462
3.4000,-1.241
3.4005,-0.02059
3.4010,-0.02059
3.4015,-0.9362
3.4020,-1.852
3.4025,-1.852
3.4030,-0.3258
3.4035,0.895
3.4040,0.2846
3.4045,-1.547
3.4050,-2.767
3.4055,-1.852
3.4060,-1.241
3.4065,-2.157
3.4070,-3.073
3.4075,-1.547
3.4080,-0.02059
3.4085,0.2846
3.4090,-0.02059
3.4095,0.2846
3.4100,0.5898
3.4105,-0.02059
3.4110,-0.631
3.4115,0.2846
3.4120,3.031
3.4125,4.557
3.4130,3.337
3.4135,1.811
3.4140,0.895
3.4145,1.2
3.4150,1.505
3.4155,1.505
3.4160,1.505
3.4165,0.895
3.4170,1.2
3.4175,2.421
3.4180,2.726
3.4185,1.811
3.4190,0.2846
3.4195,0.895
3.4200,2.421
3.4205,3.031
3.4210,1.811
3.4215,1.2
3.4220,2.116
3.4225,3.337
3.4230,3.642
3.4235,3.337
3.4240,2.421
3.4245,1.505
3.4250,0.5898
3.4255,1.2
3.4260,2.726
3.4265,3.031
3.4270,1.505
3.4275,0.2846
3.4280,0.895
3.4285,2.421
3.4290,2.421
3.4295,1.2
3.4300,0.895
3.4305,2.116
3.4310,3.031
3.4315,2.116
3.4320,0.5898
3.4325,0.2846
3.4330,1.505
3.4335,2.421
3.4340,2.421
3.4345,1.505
3.4350,1.2
3.4355,1.2
3.4360,0.895
3.4365,0.2846
3.4370,0.2846
3.4375,0.895
3.4380,1.505
3.4385,1.2
3.4390,1.2
3.4395,1.2
3.4400,1.2
3.4405,0.895
3.4410,0.5898
3.4415,1.505
3.4420,2.421
3.4425,1.2
3.4430,-0.02059
3.4435,-0.3258
3.4440,0.895
3.4445,1.811
3.4450,0.5898
3.4455,-0.02059
3.4460,0.895
3.4465,2.116
3.4470,1.505
3.4475,0.2846
3.4480,0.5898
3.4485,1.505
3.4490,0.895
3.4495,-0.631
3.4500,-1.547
3.4505,-1.241
3.4510,-0.9362
3.4515,-1.241
3.4520,-0.631
3.4525,-0.02059
3.4530,0.2846
3.4535,0.2846
3.4540,0.895
3.4545,1.811
3.4550,1.811
3.4555,1.2
3.4560,0.895
3.4565,1.505
3.4570,1.505
3.4575,0.5898
3.4580,0.5898
3.4585,1.2
3.4590,1.811
3.4595,1.2
3.4600,0.5898
3.4605,0.5898
3.4610,0.5898
3.4615,-0.02059
3.4620,-0.631
3.4625,-2.157
3.4630,-3.683
3.4635,-4.293
3.4640,-3.683
3.4645,-3.378
3.4650,-4.599
3.4655,-6.124
3.4660,-6.43
3.4665,-5.819
3.4670,-5.514
3.4675,-5.514
3.4680,-4.904
3.4685,-3.683
3.4690,-2.462
3.4695,-1.852
3.4700,-0.9362
3.4705,-0.3258
3.4710,-0.02059
3.4715,0.5898
3.4720,0.2846
3.4725,-0.02059
3.4730,-1.241
3.4735,-1.241
3.4740,-0.02059
3.4745,0.895
3.4750,0.5898
3.4755,-0.02059
3.4760,-0.02059
3.4765,0.895
3.4770,0.895
3.4775,0.2846
3.4780,0.2846
3.4785,0.2846
3.4790,-0.02059
3.4795,-0.3258
3.4800,0.2846
3.4805,1.811
3.4810,1.2
3.4815,-0.02059
3.4820,-0.3258
3.4825,1.505
3.4830,3.031
3.4835,2.116
3.4840,0.2846
3.4845,-0.02059
3.4850,1.2
3.4855,1.811
3.4860,1.505
3.4865,1.2
3.4870,1.811
3.4875,2.116
3.4880,1.811
3.4885,0.895
3.4890,0.5898
3.4895,1.2
3.4900,1.505
3.4905,1.505
3.4910,1.505
3.4915,1.811
3.4920,1.811
3.4925,1.505
3.4930,1.2
3.4935,1.2
3.4940,1.2
3.4945,0.895
3.4950,0.895
3.4955,0.895
3.4960,0.5898
3.4965,-0.02059
3.4970,0.2846
3.4975,1.2
3.4980,2.116
3.4985,1.811
3.4990,1.811
3.4995,1.505
3.5000,1.505
3.5005,0.895
3.5010,0.5898
3.5015,0.5898
3.5020,0.2846
3.5025,-0.9362
3.5030,-2.157
3.5035,-2.157
3.5040,-1.852
3.5045,-2.462
3.5050,-3.378
3.5055,-3.378
3.5060,-2.462
3.5065,-2.157
3.5070,-2.767
3.5075,-2.157
3.5080,-0.631
3.5085,-0.02059
3.5090,-0.3258
3.5095,-1.241
3.5100,-0.631
3.5105,-0.02059
3.5110,-0.9362
3.5115,-2.767
3.5120,-2.767
3.5125,-1.547
3.5130,-1.241
3.5135,-2.157
3.5140,-2.767
3.5145,-2.157
3.5150,-1.852
3.5155,-1.852
3.5160,-1.852
3.5165,-1.852
3.5170,-1.852
3.5175,-1.852
3.5180,-2.157
3.5185,-2.462
3.5190,-2.767
3.5195,-3.378
3.5200,-3.073
3.5205,-2.157
3.5210,-1.852
3.5215,-2.157
3.5220,-1.852
3.5225,-0.9362
3.5230,-0.02059
3.5235,-0.02059
3.5240,-0.631
3.5245,-0.9362
3.5250,-0.3258
3.5255,-0.3258
3.5260,-0.9362
3.5265,-1.241
3.5270,-0.9362
3.5275,-0.3258
3.5280,-0.02059
3.5285,-0.02059
3.5290,-0.02059
3.5295,-0.02059
3.5300,0.2846
3.5305,0.5898
3.5310,0.2846
3.5315,-0.02059
3.5320,-1.547
3.5325,-2.767
3.5330,-3.073
3.5335,-2.462
3.5340,-1.852
3.5345,-1.241
3.5350,-0.9362
3.5355,-0.9362
3.5360,-0.9362
3.5365,-1.547
3.5370,-1.852
3.5375,-1.852
3.5380,-1.547
3.5385,-2.157
3.5390,-3.378
3.5395,-3.988
3.5400,-3.073
3.5405,-1.547
3.5410,-1.241
3.5415,-1.547
3.5420,-1.852
3.5425,-1.241
3.5430,-0.3258
3.5435,-0.02059
3.5440,-0.02059
3.5445,-0.3258
3.5450,-0.02059
3.5455,0.895
3.5460,1.505
3.5465,0.5898
3.5470,-0.631
3.5475,-1.241
3.5480,-0.3258
3.5485,0.5898
3.5490,0.895
3.5495,0.895
3.5500,1.2
3.5505,0.895
3.5510,0.5898
3.5515,0.895
3.5520,1.505
3.5525,2.116
3.5530,1.811
3.5535,1.811
3.5540,2.726
3.5545,3.337
3.5550,2.421
3.5555,1.2
3.5560,1.2
3.5565,1.505
3.5570,1.2
3.5575,-0.3258
3.5580,-1.241
3.5585,-0.02059
3.5590,2.116
3.5595,2.726
3.5600,1.811
3.5605,0.895
3.5610,0.895
3.5615,1.2
3.5620,0.895
3.5625,0.5898
3.5630,0.895
3.5635,1.2
3.5640,0.5898
3.5645,-0.02059
3.5650,-0.3258
3.5655,-0.02059
3.5660,0.2846
3.5665,0.2846
3.5670,0.5898
3.5675,1.811
3.5680,2.116
3.5685,1.811
3.5690,1.505
3.5695,1.505
3.5700,1.505
3.5705,1.505
3.5710,1.505
3.5715,1.505
3.5720,1.505
3.5725,1.2
3.5730,0.895
3.5735,0.895
3.5740,1.2
3.5745,1.505
3.5750,1.2
3.5755,-0.02059
3.5760,-0.3258
3.5765,-0.02059
3.5770,0.2846
3.5775,0.2846
3.5780,0.2846
3.5785,0.5898
3.5790,0.895
3.5795,0.2846
3.5800,-0.631
3.5805,-0.02059
3.5810,1.2
3.5815,1.811
3.5820,-0.02059
3.5825,-1.547
3.5830,-2.157
3.5835,-2.462
3.5840,-3.683
3.5845,-4.904
3.5850,-3.988
3.5855,-1.852
3.5860,-0.631
3.5865,-2.157
3.5870,-3.378
3.5875,-3.378
3.5880,-1.852
3.5885,-0.631
3.5890,-0.9362
3.5895,-1.852
3.5900,-2.462
3.5905,-1.547
3.5910,-0.3258
3.5915,0.2846
3.5920,0.2846
3.5925,0.5898
3.5930,0.895
3.5935,1.2
3.5940,1.505
3.5945,2.421
3.5950,2.726
3.5955,2.116
3.5960,1.2
3.5965,1.2
3.5970,2.421
3.5975,3.337
3.5980,3.642
3.5985,3.031
3.5990,2.421
3.5995,1.505
3.6000,1.505
3.6005,1.811
3.6010,2.421
3.6015,2.116
3.6020,1.505
3.6025,1.2
3.6030,1.2
3.6035,1.505
3.6040,2.116
3.6045,3.337
3.6050,3.337
3.6055,1.811
3.6060,0.5898
3.6065,1.2
3.6070,2.421
3.6075,1.505
3.6080,-0.02059
3.6085,-0.02059
3.6090,1.2
3.6095,2.116
3.6100,1.505
3.6105,0.5898
3.6110,0.2846
3.6115,-0.02059
3.6120,-0.3258
3.6125,-0.631
3.6130,-0.3258
3.6135,-0.02059
3.6140,-0.02059
3.6145,0.895
3.6150,1.811
3.6155,1.2
3.6160,-0.02059
3.6165,-0.02059
3.6170,0.895
3.6175,1.2
3.6180,0.895
3.6185,0.5898
3.6190,1.2
3.6195,1.505
3.6200,0.895
3.6205,0.2846
3.6210,0.5898
3.6215,1.2
3.6220,1.505
3.6225,1.505
3.6230,1.811
3.6235,1.811
3.6240,1.2
3.6245,0.895
3.6250,1.811
3.6255,2.726
3.6260,2.421
3.6265,1.505
3.6270,1.2
3.6275,0.895
3.6280,-1.241
3.6285,-4.293
3.6290,-6.43
3.6295,-6.43
3.6300,-6.43
3.6305,-6.43
3.6310,-5.819
3.6315,-4.599
3.6320,-3.683
3.6325,-3.683
3.6330,-3.073
3.6335,-0.02059
3.6340,3.031
3.6345,5.778
3.6350,7.304
3.6355,8.525
3.6360,9.44
3.6365,9.135
3.6370,7.609
3.6375,5.473
3.6380,3.031
3.6385,1.2
3.6390,0.5898
3.6395,1.811
3.6400,3.337
3.6405,3.337
3.6410,2.116
3.6415,0.895
3.6420,0.895
3.6425,2.116
3.6430,2.726
3.6435,2.116
3.6440,0.2846
3.6445,-1.241
3.6450,-2.157
3.6455,-2.157
3.6460,-1.852
3.6465,-1.547
3.6470,-1.547
3.6475,-1.852
3.6480,-3.073
3.6485,-3.073
3.6490,-2.157
3.6495,-0.631
3.6500,-1.241
3.6505,-3.378
3.6510,-4.599
3.6515,-3.988
3.6520,-3.988
3.6525,-5.209
3.6530,-5.209
3.6535,-3.073
3.6540,-1.547
3.6545,-2.767
3.6550,-2.767
3.6555,1.811
3.6560,9.135
3.6565,11.88
3.6570,7.914
3.6575,2.421
3.6580,-0.3258
3.6585,-0.9362
3.6590,-2.157
3.6595,-3.988
3.6600,-5.209
3.6605,-5.514
3.6610,-6.124
3.6615,-7.345
3.6620,-8.261
3.6625,-8.566
3.6630,-8.261
3.6635,-7.956
3.6640,-6.735
3.6645,-4.904
3.6650,-3.073
3.6655,-2.767
3.6660,-4.599
3.6665,-7.04
3.6670,-6.735
3.6675,-3.378
3.6680,-1.547
3.6685,-3.683
3.6690,-6.43
3.6695,-5.819
3.6700,-3.073
3.6705,-2.767
3.6710,-4.904
3.6715,-6.43
3.6720,-6.43
3.6725,-6.735
3.6730,-7.04
3.6735,-4.599
3.6740,-0.3258
3.6745,1.505
3.6750,1.2
3.6755,0.2846
3.6760,-0.3258
3.6765,-4.904
3.6770,-10.09
3.6775,-7.65
3.6780,6.999
3.6785,26.53
3.6790,38.43
3.6795,37.52
3.6800,25.62
3.6805,6.694
3.6810,-16.2
3.6815,-39.7
3.6820,-60.75
3.6825,-76.32
3.6830,-84.56
3.6835,-86.09
3.6840,-83.95
3.6845,-78.46
3.6850,-66.25
3.6855,-44.88
3.6860,-18.03
3.6865,7.304
3.6870,29.28
3.6875,47.59
3.6880,62.54
3.6885,75.67
3.6890,90.32
3.6895,105
3.6900,112
3.6905,106.2
3.6910,93.98
3.6915,82.38
3.6920,68.65
3.6925,49.42
3.6930,31.11
3.6935,21.34
3.6940,12.19
3.6945,-6.735
3.6950,-27.79
3.6955,-31.46
3.6960,-18.64
3.6965,-13.75
3.6970,-27.79
3.6975,-46.41
3.6980,-51.6
3.6985,-47.33
3.6990,-47.63
3.6995,-54.04
3.7000,-57.4
3.7005,-52.82
3.7010,-44.27
3.7015,-34.81
3.7020,-25.05
3.7025,-16.2
3.7030,-9.787
3.7035,-6.43
3.7040,-8.261
3.7045,-13.75
3.7050,-14.67
3.7055,0.2846
3.7060,29.28
3.7065,55.22
3.7070,63.46
3.7075,56.14
3.7080,46.67
3.7085,41.49
3.7090,37.82
3.7095,32.94
3.7100,29.89
3.7105,30.8
3.7110,32.94
3.7115,31.41
3.7120,26.53
3.7125,22.87
3.7130,22.87
3.7135,22.56
3.7140,18.9
3.7145,14.32
3.7150,13.41
3.7155,12.19
3.7160,2.421
3.7165,-15.59
3.7170,-32.07
3.7175,-39.7
3.7180,-42.75
3.7185,-46.41
3.7190,-48.85
3.7195,-44.88
3.7200,-35.42
3.7205,-25.96
3.7210,-17.72
3.7215,-9.176
3.7220,-0.631
3.7225,4.863
3.7230,8.525
3.7235,12.19
3.7240,17.38
3.7245,22.56
3.7250,28.97
3.7255,35.69
3.7260,38.74
3.7265,34.77
3.7270,25.62
3.7275,15.85
3.7280,8.83
3.7285,3.337
3.7290,0.5898
3.7295,1.505
3.7300,3.337
3.7305,2.421
3.7310,-0.3258
3.7315,-1.852
3.7320,-0.3258
3.7325,0.2846
3.7330,-1.241
3.7335,-4.904
3.7340,-7.65
3.7345,-9.176
3.7350,-11.01
3.7355,-12.84
3.7360,-13.14
3.7365,-12.23
3.7370,-11.92
3.7375,-12.84
3.7380,-13.75
3.7385,-13.14
3.7390,-12.23
3.7395,-11.62
3.7400,-11.62
3.7405,-11.92
3.7410,-12.23
3.7415,-13.14
3.7420,-13.75
3.7425,-13.75
3.7430,-12.84
3.7435,-12.53
3.7440,-12.84
3.7445,-13.45
3.7450,-13.45
3.7455,-12.84
3.7460,-12.53
3.7465,-12.23
3.7470,-11.31
3.7475,-10.4
3.7480,-9.787
3.7485,-9.482
3.7490,-9.176
3.7495,-8.566
3.7500,-8.566
3.7505,-8.871
3.7510,-8.871
3.7515,-8.261
3.7520,-7.345
3.7525,-6.735
3.7530,-6.124
3.7535,-5.209
3.7540,-4.599
3.7545,-4.599
3.7550,-4.599
3.7555,-4.599
3.7560,-3.988
3.7565,-3.683
3.7570,-2.767
3.7575,-2.157
3.7580,-2.157
3.7585,-2.767
3.7590,-2.767
3.7595,-0.631
3.7600,3.031
3.7605,6.083
3.7610,7.304
3.7615,6.999
3.7620,5.168
3.7625,3.337
3.7630,1.811
3.7635,-0.02059
3.7640,-3.073
3.7645,-6.43
3.7650,-8.261
3.7655,-7.956
3.7660,-7.65
3.7665,-7.956
3.7670,-8.261
3.7675,-7.04
3.7680,-2.462
3.7685,4.557
3.7690,13.1
3.7695,21.04
3.7700,25.92
3.7705,27.75
3.7710,25.31
3.7715,17.68
3.7720,5.778
3.7725,-6.43
3.7730,-15.28
3.7735,-18.94
3.7740,-20.47
3.7745,-21.08
3.7750,-19.86
3.7755,-15.89
3.7760,-11.01
3.7765,-5.819
3.7770,-0.3258
3.7775,3.031
3.7780,0.5898
3.7785,-7.956
3.7790,-16.81
3.7795,-20.47
3.7800,-19.25
3.7805,-16.81
3.7810,-12.23
3.7815,-2.462
3.7820,11.27
3.7825,23.78
3.7830,31.11
3.7835,35.38
3.7840,38.13
3.7845,37.82
3.7850,33.25
3.7855,29.28
3.7860,28.97
3.7865,29.89
3.7870,28.06
3.7875,24.7
3.7880,23.17
3.7885,22.26
3.7890,16.46
3.7895,6.083
3.7900,-0.9362
3.7905,-2.157
3.7910,-1.241
3.7915,-1.241
3.7920,-1.241
3.7925,0.2846
3.7930,1.811
3.7935,1.2
3.7940,1.811
3.7945,4.863
3.7950,6.083
3.7955,1.811
3.7960,-2.462
3.7965,-2.157
3.7970,1.2
3.7975,2.421
3.7980,0.895
3.7985,0.895
3.7990,3.031
3.7995,4.252
3.8000,4.557
3.8005,7.304
3.8010,11.88
3.8015,14.93
3.8020,13.71
3.8025,8.525
3.8030,0.895
3.8035,-6.43
3.8040,-9.176
3.8045,-5.819
3.8050,-2.462
3.8055,-5.819
3.8060,-14.06
3.8065,-18.33
3.8070,-14.98
3.8075,-8.871
3.8080,-5.514
3.8085,-4.293
3.8090,-2.767
3.8095,-1.241
3.8100,-0.3258
3.8105,-0.02059
3.8110,0.5898
3.8115,0.5898
3.8120,-0.02059
3.8125,-0.3258
3.8130,-0.3258
3.8135,-0.631
3.8140,-0.9362
3.8145,-0.631
3.8150,-0.02059
3.8155,-0.02059
3.8160,-0.02059
3.8165,-0.02059
3.8170,0.2846
3.8175,-0.02059
3.8180,-0.631
3.8185,-0.9362
3.8190,-0.9362
3.8195,-1.547
3.8200,-2.767
3.8205,-2.462
3.8210,-1.547
3.8215,-0.631
3.8220,0.2846
3.8225,3.642
3.8230,6.694
3.8235,6.388
3.8240,3.031
3.8245,0.895
3.8250,2.116
3.8255,3.642
3.8260,4.252
3.8265,6.083
3.8270,9.44
3.8275,10.66
3.8280,7.914
3.8285,5.168
3.8290,6.388
3.8295,9.746
3.8300,9.135
3.8305,4.252
3.8310,-0.9362
3.8315,-5.819
3.8320,-10.4
3.8325,-13.45
3.8330,-12.23
3.8335,-7.04
3.8340,-3.073
3.8345,-1.852
3.8350,-1.852
3.8355,-1.852
3.8360,-4.293
3.8365,-9.482
3.8370,-13.45
3.8375,-12.84
3.8380,-8.871
3.8385,-5.514
3.8390,-3.988
3.8395,-3.378
3.8400,-3.378
3.8405,-3.988
3.8410,-4.293
3.8415,-3.073
3.8420,-1.241
3.8425,-1.241
3.8430,-3.378
3.8435,-6.124
3.8440,-7.956
3.8445,-9.176
3.8450,-10.4
3.8455,-11.31
3.8460,-11.31
3.8465,-10.09
3.8470,-8.566
3.8475,-6.124
3.8480,-3.378
3.8485,-1.852
3.8490,-3.073
3.8495,-5.209
3.8500,-3.988
3.8505,2.116
3.8510,10.66
3.8515,16.77
3.8520,18.6
3.8525,18.6
3.8530,19.82
3.8535,21.95
3.8540,23.17
3.8545,23.17
3.8550,22.56
3.8555,22.87
3.8560,23.48
3.8565,22.56
3.8570,18.6
3.8575,12.8
3.8580,7.914
3.8585,4.863
3.8590,2.116
3.8595,-1.852
3.8600,-6.124
3.8605,-7.956
3.8610,-7.65
3.8615,-8.566
3.8620,-9.787
3.8625,-7.345
3.8630,-0.02059
3.8635,7.914
3.8640,10.66
3.8645,9.135
3.8650,7.304
3.8655,6.694
3.8660,5.168
3.8665,1.811
3.8670,-1.547
3.8675,-5.514
3.8680,-10.7
3.8685,-15.28
3.8690,-16.2
3.8695,-13.45
3.8700,-11.92
3.8705,-14.06
3.8710,-16.2
3.8715,-15.89
3.8720,-14.36
3.8725,-12.84
3.8730,-8.871
3.8735,-3.073
3.8740,-1.547
3.8745,-6.124
3.8750,-10.09
3.8755,-6.735
3.8760,-0.02059
3.8765,3.031
3.8770,7.304
3.8775,20.73
3.8780,40.27
3.8785,54.61
3.8790,56.75
3.8795,48.81
3.8800,30.5
3.8805,-0.3258
3.8810,-38.78
3.8815,-68.38
3.8820,-80.29
3.8825,-80.29
3.8830,-79.07
3.8835,-76.62
3.8840,-68.08
3.8845,-52.51
3.8850,-34.51
3.8855,-15.28
3.8860,5.473
3.8865,25.01
3.8870,35.99
3.8875,35.69
3.8880,27.75
3.8885,18.29
3.8890,10.05
3.8895,4.557
3.8900,0.5898
3.8905,-3.378
3.8910,-7.956
3.8915,-11.01
3.8920,-10.7
3.8925,-7.345
3.8930,-1.852
3.8935,6.388
3.8940,17.38
3.8945,25.92
3.8950,28.06
3.8955,24.7
3.8960,19.82
3.8965,14.32
3.8970,6.999
3.8975,-0.3258
3.8980,-3.988
3.8985,-4.293
3.8990,-4.904
3.8995,-7.04
3.9000,-8.871
3.9005,-8.566
3.9010,-7.956
3.9015,-7.956
3.9020,-5.209
3.9025,2.116
3.9030,13.1
3.9035,24.09
3.9040,32.94
3.9045,37.82
3.9050,36.3
3.9055,28.36
3.9060,17.99
3.9065,9.746
3.9070,4.557
3.9075,0.895
3.9080,-1.852
3.9085,-5.209
3.9090,-10.09
3.9095,-15.28
3.9100,-17.72
3.9105,-15.59
3.9110,-11.62
3.9115,-9.787
3.9120,-8.871
3.9125,-6.124
3.9130,-2.767
3.9135,-3.378
3.9140,-10.09
3.9145,-17.72
3.9150,-20.47
3.9155,-17.72
3.9160,-12.84
3.9165,-8.261
3.9170,-2.157
3.9175,5.473
3.9180,12.8
3.9185,14.63
3.9190,10.97
3.9195,7.609
3.9200,8.525
3.9205,11.27
3.9210,11.27
3.9215,6.388
3.9220,-1.241
3.9225,-9.787
3.9230,-16.81
3.9235,-20.77
3.9240,-20.47
3.9245,-17.11
3.9250,-13.45
3.9255,-12.23
3.9260,-11.62
3.9265,-11.01
3.9270,-8.871
3.9275,-6.43
3.9280,-5.514
3.9285,-5.514
3.9290,-3.683
3.9295,0.895
3.9300,5.473
3.9305,4.252
3.9310,-0.631
3.9315,-1.852
3.9320,3.642
3.9325,10.36
3.9330,9.746
3.9335,4.252
3.9340,2.116
3.9345,3.947
3.9350,4.557
3.9355,2.726
3.9360,3.337
3.9365,7.609
3.9370,11.27
3.9375,12.49
3.9380,16.77
3.9385,25.92
3.9390,33.86
3.9395,32.94
3.9400,24.39
3.9405,15.85
3.9410,11.27
3.9415,8.83
3.9420,7.914
3.9425,8.525
3.9430,8.22
3.9435,4.252
3.9440,-1.547
3.9445,-4.599
3.9450,-3.988
3.9455,-3.378
3.9460,-3.988
3.9465,-3.378
3.9470,-0.631
3.9475,-0.02059
3.9480,-2.462
3.9485,-5.209
3.9490,-4.599
3.9495,-2.767
3.9500,-2.767
3.9505,-3.988
3.9510,-3.683
3.9515,-1.547
3.9520,-0.3258
3.9525,-0.631
3.9530,-1.852
3.9535,-2.462
3.9540,-2.157
3.9545,-2.462
3.9550,-3.073
3.9555,-4.293
3.9560,-5.514
3.9565,-5.819
3.9570,-6.43
3.9575,-6.735
3.9580,-5.819
3.9585,-4.293
3.9590,-3.378
3.9595,-3.683
3.9600,-4.904
3.9605,-4.904
3.9610,-4.293
3.9615,-3.683
3.9620,-3.073
3.9625,-2.767
3.9630,-2.767
3.9635,-3.378
3.9640,-2.157
3.9645,0.895
3.9650,3.642
3.9655,3.337
3.9660,1.2
3.9665,-0.02059
3.9670,0.5898
3.9675,2.421
3.9680,5.473
3.9685,7.304
3.9690,5.778
3.9695,3.337
3.9700,3.642
3.9705,3.031
3.9710,-8.261
3.9715,-31.76
3.9720,-49.16
3.9725,-45.49
3.9730,-28.1
3.9735,-19.25
3.9740,-25.66
3.9745,-37.25
3.9750,-46.72
3.9755,-57.4
3.9760,-67.47
3.9765,-63.5
3.9770,-38.48
3.9775,-6.735
3.9780,14.63
3.9785,25.62
3.9790,36.91
3.9795,50.64
3.9800,58.58
3.9805,57.36
3.9810,50.34
3.9815,42.71
3.9820,38.13
3.9825,40.57
3.9830,52.17
3.9835,65.6
3.9840,72.31
3.9845,72.31
3.9850,69.26
3.9855,58.58
3.9860,36.6
3.9865,10.97
3.9870,-0.631
3.9875,5.473
3.9880,16.77
3.9885,19.82
3.9890,15.24
3.9895,10.36
3.9900,7.304
3.9905,3.642
3.9910,-0.02059
3.9915,-1.852
3.9920,-2.767
3.9925,-5.209
3.9930,-7.04
3.9935,-7.04
3.9940,-7.65
3.9945,-11.31
3.9950,-15.28
3.9955,-15.28
3.9960,-11.31
3.9965,-7.345
3.9970,-5.209
3.9975,-3.073
3.9980,-0.631
3.9985,1.2
3.9990,2.116
3.9995,1.811
4.0000,0.895
4.0005,0.5898
4.0010,3.337
4.0015,7.609
4.0020,9.44
4.0025,6.388
4.0030,1.811
4.0035,-0.631
4.0040,-2.157
4.0045,-4.599
4.0050,-8.261
4.0055,-12.23
4.0060,-16.5
4.0065,-20.77
4.0070,-22.3
4.0075,-20.47
4.0080,-18.33
4.0085,-18.03
4.0090,-18.03
4.0095,-17.72
4.0100,-21.08
4.0105,-29.01
4.0110,-36.03
4.0115,-34.51
4.0120,-26.57
4.0125,-19.55
4.0130,-17.11
4.0135,-16.5
4.0140,-18.64
4.0145,-24.44
4.0150,-29.32
4.0155,-26.27
4.0160,-16.5
4.0165,-9.176
4.0170,-9.176
4.0175,-11.31
4.0180,-10.09
4.0185,-7.345
4.0190,-7.04
4.0195,-8.261
4.0200,-7.956
4.0205,-6.735
4.0210,-7.65
4.0215,-10.7
4.0220,-12.53
4.0225,-11.31
4.0230,-9.482
4.0235,-8.261
4.0240,-7.956
4.0245,-7.956
4.0250,-7.04
4.0255,-4.293
4.0260,-1.547
4.0265,-0.9362
4.0270,-3.378
4.0275,-6.124
4.0280,-6.43
4.0285,-3.378
4.0290,1.811
4.0295,9.746
4.0300,21.04
4.0305,34.77
4.0310,45.45
4.0315,46.37
4.0320,35.38
4.0325,19.51
4.0330,9.746
4.0335,12.19
4.0340,20.12
4.0345,23.48
4.0350,18.29
4.0355,9.746
4.0360,1.811
4.0365,-6.124
4.0370,-15.59
4.0375,-21.08
4.0380,-19.25
4.0385,-11.92
4.0390,-5.209
4.0395,-1.547
4.0400,-0.02059
4.0405,0.5898
4.0410,-0.02059
4.0415,-2.157
4.0420,-2.767
4.0425,-0.631
4.0430,0.895
4.0435,-0.3258
4.0440,-4.293
4.0445,-7.04
4.0450,-5.819
4.0455,-0.9362
4.0460,2.421
4.0465,2.726
4.0470,1.2
4.0475,0.895
4.0480,2.421
4.0485,2.421
4.0490,1.811
4.0495,3.947
4.0500,10.36
4.0505,16.46
4.0510,16.77
4.0515,12.49
4.0520,9.44
4.0525,9.135
4.0530,7.914
4.0535,4.557
4.0540,3.337
4.0545,7.304
4.0550,14.02
4.0555,17.38
4.0560,16.77
4.0565,14.32
4.0570,12.19
4.0575,10.36
4.0580,10.05
4.0585,11.58
4.0590,13.71
4.0595,11.88
4.0600,3.947
4.0605,-9.787
4.0610,-26.88
4.0615,-38.78
4.0620,-31.46
4.0625,-1.241
4.0630,35.38
4.0635,54.3
4.0640,47.28
4.0645,29.58
4.0650,18.29
4.0655,14.93
4.0660,11.27
4.0665,3.337
4.0670,-7.345
4.0675,-21.38
4.0680,-37.56
4.0685,-49.46
4.0690,-49.16
4.0695,-36.64
4.0700,-20.16
4.0705,-6.43
4.0710,1.505
4.0715,3.947
4.0720,1.811
4.0725,-2.157
4.0730,-7.04
4.0735,-11.92
4.0740,-17.42
4.0745,-23.52
4.0750,-32.37
4.0755,-44.27
4.0760,-53.73
4.0765,-54.04
4.0770,-48.85
4.0775,-46.1
4.0780,-48.24
4.0785,-49.16
4.0790,-48.85
4.0795,-54.35
4.0800,-68.69
4.0805,-80.29
4.0810,-78.46
4.0815,-66.25
4.0820,-52.21
4.0825,-36.95
4.0830,-14.98
4.0835,10.05
4.0840,26.23
4.0845,26.53
4.0850,21.34
4.0855,27.45
4.0860,51.25
4.0865,80.55
4.0870,100.4
4.0875,107.1
4.0880,111.4
4.0885,119
4.0890,126.6
4.0895,128.2
4.0900,122.7
4.0905,111.1
4.0910,93.98
4.0915,75.97
4.0920,66.82
4.0925,68.04
4.0930,70.78
4.0935,66.21
4.0940,57.97
4.0945,52.17
4.0950,53.39
4.0955,69.26
4.0960,108
4.0965,157.5
4.0970,182.8
4.0975,163.3
4.0980,113.5
4.0985,58.58
4.0990,2.421
4.0995,-57.09
4.1000,-105
4.1005,-124.8
4.1010,-131.3
4.1015,-148.3
4.1020,-168.5
4.1025,-163.9
4.1030,-133.7
4.1035,-103.5
4.1040,-78.46
4.1045,-38.78
4.1050,12.19
4.1055,41.79
4.1060,39.04
4.1065,35.99
4.1070,50.03
4.1075,44.23
4.1080,-15.89
4.1085,-103.2
4.1090,-158.1
4.1095,-167
4.1100,-163
4.1105,-164.2
4.1110,-155.1
4.1115,-125.5
4.1120,-92.8
4.1125,-72.35
4.1130,-57.4
4.1135,-39.09
4.1140,-23.52
4.1145,-18.33
4.1150,-17.42
4.1155,-13.75
4.1160,-10.4
4.1165,-11.62
4.1170,-13.14
4.1175,-10.09
4.1180,-5.819
4.1185,-4.293
4.1190,-3.378
4.1195,-0.3258
4.1200,3.642
4.1205,8.525
4.1210,15.54
4.1215,23.17
4.1220,25.92
4.1225,25.62
4.1230,33.55
4.1235,50.34
4.1240,61.02
4.1245,50.03
4.1250,18.29
4.1255,-21.38
4.1260,-62.59
4.1265,-105.3
4.1270,-142.5
4.1275,-159
4.1280,-145.9
4.1285,-110.5
4.1290,-68.99
4.1295,-32.98
4.1300,-3.988
4.1305,22.56
4.1310,51.86
4.1315,82.99
4.1320,113.2
4.1325,141.3
4.1330,168.4
4.1335,195.6
4.1340,218.2
4.1345,224.6
4.1350,203.2
4.1355,155
4.1360,100.7
4.1365,65.6
4.1370,56.14
4.1375,57.66
4.1380,55.52
4.1385,50.03
4.1390,49.12
4.1395,50.03
4.1400,43.01
4.1405,25.92
4.1410,7.609
4.1415,-5.209
4.1420,-14.98
4.1425,-23.83
4.1430,-29.62
4.1435,-29.62
4.1440,-25.66
4.1445,-20.77
4.1450,-16.81
4.1455,-14.06
4.1460,-13.75
4.1465,-15.28
4.1470,-16.5
4.1475,-17.11
4.1480,-18.03
4.1485,-18.64
4.1490,-18.03
4.1495,-16.81
4.1500,-17.42
4.1505,-20.16
4.1510,-21.38
4.1515,-19.55
4.1520,-17.11
4.1525,-17.11
4.1530,-18.64
4.1535,-19.25
4.1540,-18.94
4.1545,-18.64
4.1550,-18.33
4.1555,-17.42
4.1560,-17.11
4.1565,-17.72
4.1570,-18.03
4.1575,-17.11
4.1580,-15.89
4.1585,-15.28
4.1590,-14.36
4.1595,-11.62
4.1600,-7.65
4.1605,-5.514
4.1610,-5.819
4.1615,-6.43
4.1620,-6.735
4.1625,-6.735
4.1630,-6.43
4.1635,-4.904
4.1640,-3.683
4.1645,-5.209
4.1650,-9.176
4.1655,-11.92
4.1660,-11.92
4.1665,-10.7
4.1670,-9.787
4.1675,-10.09
4.1680,-11.62
4.1685,-13.75
4.1690,-14.98
4.1695,-12.84
4.1700,-10.09
4.1705,-10.09
4.1710,-11.62
4.1715,-11.62
4.1720,-10.09
4.1725,-9.787
4.1730,-11.62
4.1735,-12.23
4.1740,-11.01
4.1745,-10.09
4.1750,-11.62
4.1755,-12.53
4.1760,-12.23
4.1765,-12.23
4.1770,-12.23
4.1775,-9.176
4.1780,-2.462
4.1785,2.726
4.1790,5.168
4.1795,10.05
4.1800,20.43
4.1805,32.33
4.1810,38.43
4.1815,36.91
4.1820,32.02
4.1825,28.67
4.1830,27.75
4.1835,28.06
4.1840,25.92
4.1845,20.43
4.1850,16.46
4.1855,17.68
4.1860,21.04
4.1865,16.77
4.1870,3.642
4.1875,-11.62
4.1880,-23.52
4.1885,-33.59
4.1890,-43.66
4.1895,-50.68
4.1900,-52.21
4.1905,-49.46
4.1910,-44.27
4.1915,-35.42
4.1920,-25.35
4.1925,-21.38
4.1930,-27.18
4.1935,-36.64
4.1940,-43.97
4.1945,-48.85
4.1950,-48.85
4.1955,-33.59
4.1960,0.895
4.1965,38.13
4.1970,54.61
4.1975,50.95
4.1980,51.86
4.1985,72.31
4.1990,97.95
4.1995,103.7
4.2000,84.82
4.2005,58.27
4.2010,40.88
4.2015,36.6
4.2020,40.88
4.2025,46.06
4.2030,46.37
4.2035,38.43
4.2040,25.62
4.2045,14.02
4.2050,3.947
4.2055,-8.566
4.2060,-24.44
4.2065,-34.2
4.2070,-32.07
4.2075,-27.18
4.2080,-34.81
4.2085,-53.12
4.2090,-65.33
4.2095,-61.67
4.2100,-54.04
4.2105,-56.18
4.2110,-61.06
4.2115,-56.48
4.2120,-43.97
4.2125,-32.37
4.2130,-15.59
4.2135,14.93
4.2140,48.81
4.2145,63.15
4.2150,55.22
4.2155,39.96
4.2160,17.99
4.2165,-24.74
4.2170,-84.86
4.2175,-133.4
4.2180,-157.2
4.2185,-174.6
4.2190,-195.3
4.2195,-195
4.2200,-151.7
4.2205,-81.81
4.2210,-11.92
4.2215,56.44
4.2220,128.8
4.2225,181
4.2230,185.8
4.2235,161.4
4.2240,152.9
4.2245,170
4.2250,173.9
4.2255,127.9
4.2260,38.74
4.2265,-59.23
4.2270,-134.9
4.2275,-171.2
4.2280,-165.4
4.2285,-130.3
4.2290,-86.39
4.2295,-49.77
4.2300,-25.35
4.2305,-5.209
4.2310,25.31
4.2315,72.92
4.2320,118.4
4.2325,136.1
4.2330,125.1
4.2335,107.1
4.2340,93.06
4.2345,74.45
4.2350,49.42
4.2355,29.89
4.2360,18.29
4.2365,3.947
4.2370,-7.65
4.2375,-1.547
4.2380,12.8
4.2385,11.88
4.2390,10.05
4.2395,46.37
4.2400,105.6
4.2405,118.4
4.2410,79.02
4.2415,88.79
4.2420,227
4.2425,421.8
4.2430,525.5
4.2435,480.1
4.2440,338.1
4.2445,157.5
4.2450,-45.19
4.2455,-243.6
4.2460,-387.3
4.2465,-458.7
4.2470,-487.1
4.2475,-487.4
4.2480,-443.2
4.2485,-358.6
4.2490,-273.2
4.2495,-206.9
4.2500,-127.6
4.2505,-10.4
4.2510,108
4.2515,163.6
4.2520,134
4.2525,48.81
4.2530,-52.82
4.2535,-152.3
4.2540,-238.4
4.2545,-293.6
4.2550,-300.6
4.2555,-258.5
4.2560,-185.6
4.2565,-105.9
4.2570,-34.51
4.2575,24.39
4.2580,67.73
4.2585,86.65
4.2590,81.77
4.2595,72.92
4.2600,77.19
4.2605,89.71
4.2610,91.84
4.2615,77.19
4.2620,57.66
4.2625,45.45
4.2630,40.27
4.2635,35.69
4.2640,30.5
4.2645,28.67
4.2650,29.89
4.2655,30.5
4.2660,26.53
4.2665,19.51
4.2670,13.71
4.2675,9.44
4.2680,4.557
4.2685,0.2846
4.2690,1.505
4.2695,6.083
4.2700,6.388
4.2705,3.031
4.2710,6.083
4.2715,13.71
4.2720,9.746
4.2725,-7.956
4.2730,-12.53
4.2735,15.85
4.2740,51.25
4.2745,45.76
4.2750,-5.209
4.2755,-58.01
4.2760,-76.62
4.2765,-68.38
4.2770,-55.26
4.2775,-40.31
4.2780,-17.42
4.2785,11.58
4.2790,43.32
4.2795,80.55
4.2800,117.8
4.2805,139.1
4.2810,144.3
4.2815,154.4
4.2820,180
4.2825,200.5
4.2830,192.9
4.2835,161.7
4.2840,124.5
4.2845,86.96
4.2850,50.34
4.2855,29.28
4.2860,34.47
4.2865,50.03
4.2870,51.56
4.2875,37.82
4.2880,27.14
4.2885,27.45
4.2890,30.19
4.2895,29.28
4.2900,28.36
4.2905,29.58
4.2910,28.67
4.2915,25.01
4.2920,21.34
4.2925,17.38
4.2930,13.41
4.2935,11.27
4.2940,10.05
4.2945,5.473
4.2950,-1.241
4.2955,-5.514
4.2960,-8.566
4.2965,-16.5
4.2970,-24.13
4.2975,-21.69
4.2980,-13.45
4.2985,-14.98
4.2990,-25.96
4.2995,-29.62
4.3000,-23.22
4.3005,-16.2
4.3010,2.726
4.3015,61.02
4.3020,153.2
4.3025,235.3
4.3030,284.1
4.3035,314
4.3040,317.1
4.3045,250.2
4.3050,114.1
4.3055,-7.345
4.3060,-46.41
4.3065,-38.78
4.3070,-64.11
4.3075,-132.8
4.3080,-196.9
4.3085,-232.9
4.3090,-244.8
4.3095,-208.2
4.3100,-101
4.3105,22.56
4.3110,75.06
4.3115,47.28
4.3120,8.83
4.3125,-10.4
4.3130,-54.96
4.3135,-137.7
4.3140,-197.2
4.3145,-196
4.3150,-186.5
4.3155,-230.1
4.3160,-303.4
4.3165,-349.2
4.3170,-360.8
4.3175,-363.2
4.3180,-346.7
4.3185,-286
4.3190,-202.4
4.3195,-143.8
4.3200,-119.4
4.3205,-98.9
4.3210,-69.91
4.3215,-48.55
4.3220,-38.48
4.3225,-22.6
4.3230,4.252
4.3235,32.02
4.3240,57.05
4.3245,78.41
4.3250,78.41
4.3255,45.76
4.3260,7.914
4.3265,1.505
4.3270,20.43
4.3275,31.72
4.3280,35.38
4.3285,63.15
4.3290,110.5
4.3295,125.1
4.3300,76.58
4.3305,-4.293
4.3310,-72.96
4.3315,-112.9
4.3320,-116.6
4.3325,-64.72
4.3330,35.38
4.3335,125.4
4.3340,146.2
4.3345,105.3
4.3350,62.54
4.3355,58.27
4.3360,81.77
4.3365,98.25
4.3370,84.21
4.3375,41.49
4.3380,-6.43
4.3385,-33.59
4.3390,-34.51
4.3395,-24.13
4.3400,-7.65
4.3405,30.5
4.3410,93.98
4.3415,148.3
4.3420,154.1
4.3425,112.9
4.3430,62.54
4.3435,32.64
4.3440,23.78
4.3445,25.01
4.3450,33.25
4.3455,52.17
4.3460,84.52
4.3465,124.8
4.3470,157.2
4.3475,171.2
4.3480,174.2
4.3485,178.2
4.3490,175.2
4.3495,148.3
4.3500,106.8
4.3505,82.69
4.3510,90.32
4.3515,111.7
4.3520,131.8
4.3525,155.9
4.3530,189.5
4.3535,234.4
4.3540,306.1
4.3545,409.9
4.3550,485.2
4.3555,430.3
4.3560,223.4
4.3565,-28.1
4.3570,-206.9
4.3575,-308.6
4.3580,-398.6
4.3585,-482.8
4.3590,-497.5
4.3595,-421.2
4.3600,-315
4.3605,-244.2
4.3610,-210.6
4.3615,-182.2
4.3620,-142.5
4.3625,-91.88
4.3630,-34.51
4.3635,8.83
4.3640,11.58
4.3645,-21.08
4.3650,-45.8
4.3655,-33.9
4.3660,-5.819
4.3665,4.557
4.3670,-1.241
4.3675,-3.988
4.3680,-0.9362
4.3685,-5.514
4.3690,-15.28
4.3695,-18.03
4.3700,-21.99
4.3705,-45.8
4.3710,-74.79
4.3715,-57.7
4.3720,26.53
4.3725,132.7
4.3730,195
4.3735,202
4.3740,183.4
4.3745,141.9
4.3750,41.18
4.3755,-123.9
4.3760,-285.7
4.3765,-366.9
4.3770,-362.6
4.3775,-327.2
4.3780,-289.7
4.3785,-231.1
4.3790,-142.9
4.3795,-59.84
4.3800,-14.06
4.3805,5.168
4.3810,20.43
4.3815,23.17
4.3820,3.337
4.3825,-8.261
4.3830,25.62
4.3835,87.57
4.3840,120.8
4.3845,108
