MR32 CSV
Name,EMG 1 channel recording 1-1
Frequency,2000
Date,25-03-2022 10:32:29
"Time,s","VMO RT,uV"
0.0000,-29.3
0.0005,-29.61
0.0010,-33.27
0.0015,-38.15
0.0020,-41.2
0.0025,-41.51
0.0030,-42.42
0.0035,-43.64
0.0040,-42.73
0.0045,-38.76
0.0050,-35.71
0.0055,-36.63
0.0060,-37.85
0.0065,-35.71
0.0070,-30.83
0.0075,-26.86
0.0080,-24.11
0.0085,-20.45
0.0090,-14.35
0.0095,-7.937
0.0100,-2.749
0.0105,-0.002135
0.0110,0.6083
0.0115,1.219
0.0120,3.05
0.0125,3.355
0.0130,-0.6125
0.0135,-5.19
0.0140,-0.3073
0.0145,14.65
0.0150,28.69
0.0155,30.21
0.0160,23.19
0.0165,18.31
0.0170,18
0.0175,15.26
0.0180,8.238
0.0185,1.829
0.0190,-1.223
0.0195,-4.275
0.0200,-8.242
0.0205,-8.242
0.0210,-2.749
0.0215,2.439
0.0220,2.134
0.0225,-0.002135
0.0230,1.524
0.0235,6.102
0.0240,7.323
0.0245,3.965
0.0250,2.134
0.0255,5.186
0.0260,10.68
0.0265,14.34
0.0270,16.17
0.0275,16.78
0.0280,14.95
0.0285,10.37
0.0290,5.491
0.0295,2.745
0.0300,-0.6125
0.0305,-8.853
0.0310,-18.92
0.0315,-22.89
0.0320,-18.01
0.0325,-9.463
0.0330,-3.97
0.0335,-1.833
0.0340,-0.002135
0.0345,2.745
0.0350,5.797
0.0355,6.712
0.0360,6.407
0.0365,5.797
0.0370,6.407
0.0375,7.628
0.0380,8.543
0.0385,9.154
0.0390,8.849
0.0395,8.849
0.0400,8.543
0.0405,8.238
0.0410,8.238
0.0415,8.543
0.0420,8.543
0.0425,7.323
0.0430,5.186
0.0435,3.965
0.0440,4.271
0.0445,5.797
0.0450,6.407
0.0455,5.797
0.0460,5.491
0.0465,5.491
0.0470,5.491
0.0475,5.186
0.0480,5.186
0.0485,6.407
0.0490,7.017
0.0495,6.407
0.0500,5.186
0.0505,4.881
0.0510,4.881
0.0515,4.881
0.0520,4.881
0.0525,6.102
0.0530,7.323
0.0535,7.323
0.0540,5.491
0.0545,3.965
0.0550,3.965
0.0555,3.965
0.0560,3.05
0.0565,2.134
0.0570,2.134
0.0575,2.134
0.0580,1.524
0.0585,-0.002135
0.0590,-0.9177
0.0595,-1.833
0.0600,-1.833
0.0605,-1.528
0.0610,-1.223
0.0615,-1.833
0.0620,-2.138
0.0625,-1.223
0.0630,-0.3073
0.0635,-1.223
0.0640,-2.749
0.0645,-3.054
0.0650,-2.138
0.0655,-1.833
0.0660,-3.359
0.0665,-3.97
0.0670,-3.359
0.0675,-2.749
0.0680,-2.749
0.0685,-3.359
0.0690,-3.359
0.0695,-2.138
0.0700,-0.9177
0.0705,-0.3073
0.0710,-0.6125
0.0715,-1.223
0.0720,-1.528
0.0725,-1.223
0.0730,-0.9177
0.0735,-1.223
0.0740,-1.528
0.0745,-0.9177
0.0750,-0.3073
0.0755,-0.6125
0.0760,-0.6125
0.0765,0.3031
0.0770,1.219
0.0775,1.219
0.0780,0.9134
0.0785,1.829
0.0790,2.745
0.0795,1.829
0.0800,-0.002135
0.0805,-1.223
0.0810,-1.833
0.0815,-3.359
0.0820,-5.496
0.0825,-6.716
0.0830,-6.106
0.0835,-5.19
0.0840,-4.885
0.0845,-3.97
0.0850,-3.054
0.0855,-2.444
0.0860,-3.054
0.0865,-4.275
0.0870,-5.496
0.0875,-6.716
0.0880,-7.937
0.0885,-7.937
0.0890,-7.022
0.0895,-6.106
0.0900,-5.801
0.0905,-4.58
0.0910,-3.054
0.0915,-2.444
0.0920,-2.444
0.0925,-1.833
0.0930,-0.3073
0.0935,0.3031
0.0940,0.3031
0.0945,-0.002135
0.0950,0.3031
0.0955,0.9134
0.0960,0.9134
0.0965,0.6083
0.0970,-0.002135
0.0975,-0.3073
0.0980,-0.3073
0.0985,0.3031
0.0990,2.745
0.0995,4.271
0.1000,3.66
0.1005,2.134
0.1010,1.524
0.1015,2.439
0.1020,2.745
0.1025,2.745
0.1030,2.439
0.1035,2.439
0.1040,2.439
0.1045,2.439
0.1050,3.965
0.1055,6.712
0.1060,9.154
0.1065,8.849
0.1070,6.407
0.1075,3.965
0.1080,3.355
0.1085,4.576
0.1090,5.491
0.1095,4.881
0.1100,1.524
0.1105,-2.138
0.1110,-4.275
0.1115,-3.359
0.1120,-1.833
0.1125,-1.833
0.1130,-2.138
0.1135,-1.528
0.1140,-1.528
0.1145,-3.97
0.1150,-7.632
0.1155,-8.242
0.1160,-5.801
0.1165,-3.97
0.1170,-5.496
0.1175,-7.327
0.1180,-7.632
0.1185,-7.022
0.1190,-7.937
0.1195,-8.853
0.1200,-8.548
0.1205,-7.327
0.1210,-7.327
0.1215,-8.548
0.1220,-8.548
0.1225,-7.632
0.1230,-7.937
0.1235,-9.158
0.1240,-9.463
0.1245,-7.022
0.1250,-4.58
0.1255,-3.054
0.1260,-1.833
0.1265,-0.6125
0.1270,-0.002135
0.1275,-0.6125
0.1280,-0.9177
0.1285,-0.002135
0.1290,0.6083
0.1295,0.9134
0.1300,0.9134
0.1305,2.134
0.1310,3.66
0.1315,3.66
0.1320,2.745
0.1325,2.439
0.1330,3.05
0.1335,3.05
0.1340,2.439
0.1345,1.829
0.1350,2.439
0.1355,2.745
0.1360,2.439
0.1365,2.134
0.1370,2.134
0.1375,2.439
0.1380,2.745
0.1385,2.439
0.1390,2.439
0.1395,2.745
0.1400,2.745
0.1405,2.745
0.1410,2.745
0.1415,2.439
0.1420,2.134
0.1425,1.829
0.1430,2.134
0.1435,2.134
0.1440,1.829
0.1445,1.829
0.1450,1.829
0.1455,1.829
0.1460,1.524
0.1465,1.219
0.1470,1.219
0.1475,1.219
0.1480,1.219
0.1485,0.9134
0.1490,0.9134
0.1495,0.9134
0.1500,1.219
0.1505,1.219
0.1510,1.524
0.1515,2.134
0.1520,2.134
0.1525,1.829
0.1530,1.829
0.1535,2.439
0.1540,2.439
0.1545,1.829
0.1550,1.219
0.1555,1.829
0.1560,2.745
0.1565,2.745
0.1570,1.524
0.1575,1.524
0.1580,2.439
0.1585,2.439
0.1590,1.524
0.1595,-0.002135
0.1600,-0.3073
0.1605,-0.002135
0.1610,-0.002135
0.1615,-0.002135
0.1620,0.3031
0.1625,0.3031
0.1630,-0.002135
0.1635,-0.9177
0.1640,-1.223
0.1645,-0.9177
0.1650,-0.002135
0.1655,0.9134
0.1660,2.134
0.1665,2.439
0.1670,1.524
0.1675,0.3031
0.1680,-0.002135
0.1685,0.9134
0.1690,1.829
0.1695,1.829
0.1700,1.524
0.1705,1.829
0.1710,2.439
0.1715,2.134
0.1720,1.219
0.1725,1.219
0.1730,1.524
0.1735,0.6083
0.1740,-0.9177
0.1745,-1.528
0.1750,-0.002135
0.1755,1.829
0.1760,0.9134
0.1765,-0.6125
0.1770,-0.3073
0.1775,1.219
0.1780,1.829
0.1785,-0.002135
0.1790,-2.138
0.1795,-3.054
0.1800,-2.749
0.1805,-2.444
0.1810,-2.444
0.1815,-2.444
0.1820,-2.749
0.1825,-2.749
0.1830,-1.833
0.1835,-1.528
0.1840,-2.749
0.1845,-4.275
0.1850,-3.97
0.1855,-1.833
0.1860,-0.9177
0.1865,-1.833
0.1870,-2.444
0.1875,-0.9177
0.1880,-0.002135
0.1885,-0.3073
0.1890,-1.223
0.1895,-0.9177
0.1900,-0.3073
0.1905,-1.223
0.1910,-2.444
0.1915,-2.138
0.1920,-0.3073
0.1925,0.6083
0.1930,0.9134
0.1935,0.9134
0.1940,1.524
0.1945,1.524
0.1950,0.9134
0.1955,-0.002135
0.1960,-0.002135
0.1965,0.3031
0.1970,0.9134
0.1975,1.524
0.1980,1.829
0.1985,1.829
0.1990,1.219
0.1995,0.6083
0.2000,-0.002135
0.2005,0.6083
0.2010,1.829
0.2015,1.829
0.2020,-0.002135
0.2025,-1.528
0.2030,-0.9177
0.2035,0.9134
0.2040,2.134
0.2045,1.219
0.2050,-0.002135
0.2055,0.3031
0.2060,1.219
0.2065,1.219
0.2070,0.3031
0.2075,-0.002135
0.2080,0.6083
0.2085,1.219
0.2090,0.9134
0.2095,0.6083
0.2100,0.6083
0.2105,0.9134
0.2110,1.829
0.2115,1.829
0.2120,1.219
0.2125,1.219
0.2130,1.829
0.2135,2.439
0.2140,2.134
0.2145,1.524
0.2150,0.6083
0.2155,0.3031
0.2160,0.3031
0.2165,-0.002135
0.2170,-0.9177
0.2175,-1.223
0.2180,-0.6125
0.2185,0.3031
0.2190,1.219
0.2195,0.9134
0.2200,0.3031
0.2205,-0.6125
0.2210,-1.223
0.2215,-1.223
0.2220,-0.6125
0.2225,-0.3073
0.2230,-0.3073
0.2235,-0.6125
0.2240,-1.223
0.2245,-0.9177
0.2250,-0.002135
0.2255,0.6083
0.2260,0.6083
0.2265,0.3031
0.2270,-0.002135
0.2275,-0.3073
0.2280,-0.3073
0.2285,-0.002135
0.2290,0.3031
0.2295,-0.002135
0.2300,-0.3073
0.2305,-0.9177
0.2310,-0.9177
0.2315,-0.6125
0.2320,-0.9177
0.2325,-0.9177
0.2330,-0.3073
0.2335,-0.002135
0.2340,-0.002135
0.2345,-0.3073
0.2350,-1.223
0.2355,-0.9177
0.2360,-0.002135
0.2365,-0.002135
0.2370,-0.002135
0.2375,-0.3073
0.2380,-0.3073
0.2385,-0.3073
0.2390,-0.6125
0.2395,-0.002135
0.2400,1.219
0.2405,2.745
0.2410,3.05
0.2415,2.134
0.2420,1.524
0.2425,1.219
0.2430,0.3031
0.2435,-0.002135
0.2440,0.3031
0.2445,1.219
0.2450,0.9134
0.2455,0.3031
0.2460,0.3031
0.2465,0.9134
0.2470,0.6083
0.2475,-0.002135
0.2480,-0.002135
0.2485,1.524
0.2490,1.829
0.2495,-0.002135
0.2500,-1.223
0.2505,-0.6125
0.2510,0.3031
0.2515,-0.002135
0.2520,-0.6125
0.2525,-0.002135
0.2530,0.3031
0.2535,-0.002135
0.2540,-0.6125
0.2545,0.3031
0.2550,1.524
0.2555,0.3031
0.2560,-0.6125
0.2565,-0.002135
0.2570,1.219
0.2575,0.3031
0.2580,-1.833
0.2585,-1.528
0.2590,1.219
0.2595,2.745
0.2600,1.829
0.2605,0.3031
0.2610,0.9134
0.2615,1.829
0.2620,2.439
0.2625,3.05
0.2630,3.66
0.2635,2.745
0.2640,0.9134
0.2645,0.3031
0.2650,1.829
0.2655,2.745
0.2660,1.524
0.2665,-0.002135
0.2670,-0.002135
0.2675,0.6083
0.2680,-0.002135
0.2685,-2.138
0.2690,-2.749
0.2695,-1.528
0.2700,-0.6125
0.2705,-0.3073
0.2710,-1.223
0.2715,-3.359
0.2720,-6.411
0.2725,-8.548
0.2730,-8.548
0.2735,-6.716
0.2740,-4.58
0.2745,-3.054
0.2750,-2.444
0.2755,-2.749
0.2760,-3.97
0.2765,-4.885
0.2770,-4.58
0.2775,-3.97
0.2780,-3.97
0.2785,-4.885
0.2790,-4.58
0.2795,-3.97
0.2800,-3.664
0.2805,-3.664
0.2810,-1.833
0.2815,0.3031
0.2820,0.6083
0.2825,-2.444
0.2830,-5.19
0.2835,-4.58
0.2840,-2.749
0.2845,-2.444
0.2850,-3.054
0.2855,-2.444
0.2860,-0.9177
0.2865,-0.6125
0.2870,-1.223
0.2875,-1.223
0.2880,-0.3073
0.2885,-0.002135
0.2890,0.3031
0.2895,0.9134
0.2900,2.439
0.2905,3.05
0.2910,1.829
0.2915,0.9134
0.2920,1.524
0.2925,2.745
0.2930,3.66
0.2935,3.965
0.2940,3.965
0.2945,3.355
0.2950,1.829
0.2955,0.9134
0.2960,1.219
0.2965,2.439
0.2970,3.05
0.2975,2.439
0.2980,1.524
0.2985,1.524
0.2990,2.745
0.2995,3.66
0.3000,3.355
0.3005,2.134
0.3010,1.524
0.3015,1.219
0.3020,1.829
0.3025,2.439
0.3030,3.355
0.3035,3.355
0.3040,2.134
0.3045,0.9134
0.3050,0.3031
0.3055,0.6083
0.3060,1.219
0.3065,1.219
0.3070,1.219
0.3075,0.6083
0.3080,-0.002135
0.3085,-0.002135
0.3090,0.6083
0.3095,0.9134
0.3100,0.3031
0.3105,-0.002135
0.3110,0.3031
0.3115,1.524
0.3120,1.219
0.3125,-0.3073
0.3130,-2.138
0.3135,-2.138
0.3140,-0.3073
0.3145,0.6083
0.3150,0.3031
0.3155,-0.6125
0.3160,-1.528
0.3165,-1.833
0.3170,-2.444
0.3175,-3.054
0.3180,-3.054
0.3185,-2.444
0.3190,-3.054
0.3195,-3.664
0.3200,-2.444
0.3205,-0.002135
0.3210,0.9134
0.3215,0.6083
0.3220,0.3031
0.3225,2.134
0.3230,3.66
0.3235,3.355
0.3240,3.05
0.3245,4.271
0.3250,5.186
0.3255,4.271
0.3260,1.829
0.3265,-0.3073
0.3270,-2.444
0.3275,-4.58
0.3280,-5.496
0.3285,-3.359
0.3290,-0.002135
0.3295,2.745
0.3300,4.271
0.3305,4.271
0.3310,3.355
0.3315,1.524
0.3320,0.3031
0.3325,0.6083
0.3330,0.6083
0.3335,0.3031
0.3340,0.9134
0.3345,3.05
0.3350,5.491
0.3355,7.017
0.3360,8.543
0.3365,10.37
0.3370,10.68
0.3375,7.628
0.3380,2.745
0.3385,-0.3073
0.3390,-1.223
0.3395,-0.3073
0.3400,1.524
0.3405,4.881
0.3410,8.849
0.3415,10.98
0.3420,10.37
0.3425,6.712
0.3430,1.829
0.3435,-3.054
0.3440,-6.411
0.3445,-8.242
0.3450,-9.158
0.3455,-10.38
0.3460,-11.6
0.3465,-12.21
0.3470,-12.21
0.3475,-12.21
0.3480,-13.13
0.3485,-14.35
0.3490,-13.74
0.3495,-10.68
0.3500,-7.632
0.3505,-6.716
0.3510,-8.548
0.3515,-10.07
0.3520,-9.768
0.3525,-8.853
0.3530,-8.242
0.3535,-7.937
0.3540,-7.632
0.3545,-7.327
0.3550,-7.327
0.3555,-7.327
0.3560,-5.496
0.3565,-3.054
0.3570,-0.002135
0.3575,2.134
0.3580,3.965
0.3585,4.271
0.3590,3.355
0.3595,2.134
0.3600,0.9134
0.3605,-0.002135
0.3610,-0.002135
0.3615,0.9134
0.3620,2.439
0.3625,3.05
0.3630,1.524
0.3635,0.6083
0.3640,1.219
0.3645,2.134
0.3650,1.829
0.3655,0.9134
0.3660,1.219
0.3665,1.829
0.3670,1.524
0.3675,-0.002135
0.3680,-1.528
0.3685,-0.9177
0.3690,0.6083
0.3695,1.829
0.3700,2.745
0.3705,3.355
0.3710,4.271
0.3715,4.576
0.3720,4.271
0.3725,3.965
0.3730,4.881
0.3735,6.712
0.3740,7.628
0.3745,7.323
0.3750,6.102
0.3755,4.881
0.3760,3.05
0.3765,1.829
0.3770,3.05
0.3775,5.797
0.3780,7.323
0.3785,5.797
0.3790,2.745
0.3795,1.219
0.3800,1.829
0.3805,1.829
0.3810,1.219
0.3815,1.524
0.3820,3.05
0.3825,3.965
0.3830,2.134
0.3835,-0.9177
0.3840,-3.359
0.3845,-3.359
0.3850,-2.138
0.3855,-1.223
0.3860,-1.223
0.3865,-0.9177
0.3870,-0.6125
0.3875,-0.3073
0.3880,-0.3073
0.3885,-0.9177
0.3890,-1.223
0.3895,-0.6125
0.3900,0.3031
0.3905,0.3031
0.3910,-0.6125
0.3915,-1.223
0.3920,-0.002135
0.3925,0.9134
0.3930,1.219
0.3935,1.524
0.3940,3.05
0.3945,4.271
0.3950,3.355
0.3955,0.3031
0.3960,-1.528
0.3965,-0.9177
0.3970,-0.002135
0.3975,0.9134
0.3980,1.219
0.3985,0.9134
0.3990,-0.002135
0.3995,-0.3073
0.4000,0.3031
0.4005,1.524
0.4010,1.829
0.4015,2.134
0.4020,3.05
0.4025,3.355
0.4030,1.219
0.4035,-1.223
0.4040,-1.528
0.4045,-0.002135
0.4050,0.9134
0.4055,-0.002135
0.4060,-0.6125
0.4065,-0.9177
0.4070,-2.138
0.4075,-3.359
0.4080,-3.664
0.4085,-1.833
0.4090,-0.002135
0.4095,0.9134
0.4100,2.134
0.4105,2.745
0.4110,3.05
0.4115,3.66
0.4120,5.186
0.4125,5.797
0.4130,4.881
0.4135,3.965
0.4140,4.881
0.4145,6.102
0.4150,5.797
0.4155,4.271
0.4160,4.271
0.4165,5.797
0.4170,5.797
0.4175,3.66
0.4180,3.05
0.4185,4.576
0.4190,6.102
0.4195,3.965
0.4200,-0.6125
0.4205,-4.275
0.4210,-6.716
0.4215,-9.158
0.4220,-12.21
0.4225,-14.04
0.4230,-13.74
0.4235,-12.82
0.4240,-14.35
0.4245,-17.4
0.4250,-18.92
0.4255,-16.79
0.4260,-12.21
0.4265,-7.937
0.4270,-5.496
0.4275,-5.19
0.4280,-6.106
0.4285,-6.106
0.4290,-3.97
0.4295,-0.002135
0.4300,2.745
0.4305,3.05
0.4310,2.745
0.4315,4.271
0.4320,8.543
0.4325,13.43
0.4330,18.31
0.4335,22.89
0.4340,26.85
0.4345,29.6
0.4350,31.43
0.4355,32.96
0.4360,32.65
0.4365,28.38
0.4370,22.28
0.4375,18.92
0.4380,18.61
0.4385,17.09
0.4390,12.21
0.4395,5.491
0.4400,-0.9177
0.4405,-9.158
0.4410,-20.14
0.4415,-29.91
0.4420,-32.96
0.4425,-30.83
0.4430,-28.39
0.4435,-28.69
0.4440,-29.61
0.4445,-29.61
0.4450,-28.69
0.4455,-26.86
0.4460,-25.64
0.4465,-26.86
0.4470,-30.22
0.4475,-31.44
0.4480,-26.86
0.4485,-18.92
0.4490,-14.04
0.4495,-12.82
0.4500,-10.38
0.4505,-6.106
0.4510,-3.664
0.4515,-4.58
0.4520,-4.885
0.4525,-2.444
0.4530,-1.223
0.4535,-3.664
0.4540,-5.496
0.4545,-1.528
0.4550,5.797
0.4555,10.98
0.4560,11.9
0.4565,12.51
0.4570,14.95
0.4575,18.92
0.4580,22.89
0.4585,26.55
0.4590,29.3
0.4595,30.82
0.4600,32.35
0.4605,35.71
0.4610,38.45
0.4615,36.62
0.4620,30.52
0.4625,25.33
0.4630,25.63
0.4635,28.99
0.4640,30.82
0.4645,29.6
0.4650,25.94
0.4655,19.23
0.4660,6.712
0.4665,-10.38
0.4670,-27.47
0.4675,-39.98
0.4680,-47.92
0.4685,-52.5
0.4690,-53.11
0.4695,-47.92
0.4700,-40.29
0.4705,-35.4
0.4710,-34.49
0.4715,-33.27
0.4720,-28.39
0.4725,-21.98
0.4730,-18.01
0.4735,-16.18
0.4740,-13.43
0.4745,-10.07
0.4750,-8.548
0.4755,-9.463
0.4760,-9.768
0.4765,-7.022
0.4770,-2.749
0.4775,-0.002135
0.4780,0.9134
0.4785,1.219
0.4790,1.524
0.4795,1.524
0.4800,1.524
0.4805,0.9134
0.4810,0.6083
0.4815,0.9134
0.4820,3.05
0.4825,7.017
0.4830,10.68
0.4835,11.9
0.4840,11.6
0.4845,11.6
0.4850,12.82
0.4855,13.12
0.4860,11.9
0.4865,10.37
0.4870,10.98
0.4875,13.12
0.4880,14.04
0.4885,12.82
0.4890,11.6
0.4895,12.51
0.4900,14.95
0.4905,16.48
0.4910,17.09
0.4915,17.09
0.4920,17.09
0.4925,16.48
0.4930,15.26
0.4935,13.43
0.4940,12.82
0.4945,12.51
0.4950,11.29
0.4955,8.543
0.4960,4.881
0.4965,2.439
0.4970,1.219
0.4975,0.6083
0.4980,-0.9177
0.4985,-3.664
0.4990,-4.275
0.4995,-2.138
0.5000,-0.3073
0.5005,-1.528
0.5010,-5.19
0.5015,-7.022
0.5020,-5.496
0.5025,-2.444
0.5030,-1.223
0.5035,-1.528
0.5040,-2.444
0.5045,-1.833
0.5050,-0.3073
0.5055,-0.002135
0.5060,-0.3073
0.5065,-1.528
0.5070,-0.6125
0.5075,1.829
0.5080,3.66
0.5085,3.05
0.5090,1.524
0.5095,1.524
0.5100,3.05
0.5105,3.965
0.5110,4.271
0.5115,4.881
0.5120,6.407
0.5125,8.238
0.5130,9.764
0.5135,10.37
0.5140,10.37
0.5145,9.764
0.5150,8.543
0.5155,7.933
0.5160,8.849
0.5165,10.98
0.5170,12.21
0.5175,11.29
0.5180,9.459
0.5185,8.238
0.5190,7.628
0.5195,3.965
0.5200,-2.444
0.5205,-6.716
0.5210,-5.496
0.5215,-2.444
0.5220,-3.97
0.5225,-9.463
0.5230,-12.52
0.5235,-10.99
0.5240,-8.548
0.5245,-7.632
0.5250,-5.19
0.5255,-1.833
0.5260,-1.223
0.5265,-4.885
0.5270,-8.242
0.5275,-7.937
0.5280,-7.937
0.5285,-12.52
0.5290,-18.01
0.5295,-18.62
0.5300,-16.18
0.5305,-16.48
0.5310,-19.23
0.5315,-20.14
0.5320,-18.31
0.5325,-19.23
0.5330,-22.89
0.5335,-23.81
0.5340,-18.62
0.5345,-10.99
0.5350,-5.801
0.5355,-2.444
0.5360,0.6083
0.5365,3.66
0.5370,4.576
0.5375,5.186
0.5380,8.543
0.5385,12.82
0.5390,15.26
0.5395,16.78
0.5400,19.53
0.5405,23.19
0.5410,25.94
0.5415,25.63
0.5420,24.72
0.5425,24.41
0.5430,24.11
0.5435,22.89
0.5440,21.06
0.5445,18.31
0.5450,14.34
0.5455,10.37
0.5460,6.712
0.5465,1.829
0.5470,-5.19
0.5475,-14.04
0.5480,-20.76
0.5485,-22.89
0.5490,-20.45
0.5495,-15.57
0.5500,-12.21
0.5505,-13.43
0.5510,-20.76
0.5515,-29.91
0.5520,-35.4
0.5525,-35.1
0.5530,-31.13
0.5535,-27.16
0.5540,-24.42
0.5545,-21.67
0.5550,-18.92
0.5555,-17.09
0.5560,-16.48
0.5565,-17.4
0.5570,-17.7
0.5575,-15.87
0.5580,-12.21
0.5585,-6.411
0.5590,-0.002135
0.5595,6.407
0.5600,12.51
0.5605,16.78
0.5610,20.45
0.5615,24.72
0.5620,30.52
0.5625,35.1
0.5630,37.54
0.5635,38.76
0.5640,40.28
0.5645,39.37
0.5650,31.43
0.5655,16.78
0.5660,1.524
0.5665,-7.632
0.5670,-10.07
0.5675,-9.463
0.5680,-7.937
0.5685,-6.716
0.5690,-5.496
0.5695,-5.19
0.5700,-5.801
0.5705,-4.885
0.5710,-2.749
0.5715,-3.359
0.5720,-10.38
0.5725,-21.06
0.5730,-28.39
0.5735,-28.39
0.5740,-24.42
0.5745,-21.98
0.5750,-22.28
0.5755,-21.67
0.5760,-18.62
0.5765,-15.26
0.5770,-13.13
0.5775,-10.99
0.5780,-7.632
0.5785,-4.58
0.5790,-4.275
0.5795,-7.327
0.5800,-10.99
0.5805,-10.99
0.5810,-6.716
0.5815,-1.223
0.5820,0.9134
0.5825,-0.9177
0.5830,-4.275
0.5835,-6.106
0.5840,-4.58
0.5845,-1.528
0.5850,1.524
0.5855,4.271
0.5860,5.186
0.5865,5.491
0.5870,6.407
0.5875,8.849
0.5880,10.37
0.5885,9.459
0.5890,8.543
0.5895,9.764
0.5900,11.9
0.5905,12.21
0.5910,10.98
0.5915,10.37
0.5920,10.68
0.5925,10.68
0.5930,9.764
0.5935,9.154
0.5940,9.764
0.5945,10.07
0.5950,9.154
0.5955,8.849
0.5960,10.37
0.5965,12.21
0.5970,12.82
0.5975,12.21
0.5980,11.9
0.5985,12.21
0.5990,11.9
0.5995,10.98
0.6000,9.764
0.6005,8.849
0.6010,8.543
0.6015,8.849
0.6020,9.154
0.6025,8.849
0.6030,8.238
0.6035,7.628
0.6040,7.628
0.6045,8.238
0.6050,8.238
0.6055,7.323
0.6060,5.491
0.6065,4.271
0.6070,3.66
0.6075,3.965
0.6080,4.881
0.6085,5.186
0.6090,4.576
0.6095,3.66
0.6100,3.05
0.6105,2.745
0.6110,2.745
0.6115,2.745
0.6120,2.134
0.6125,-0.002135
0.6130,-1.528
0.6135,-2.138
0.6140,-1.528
0.6145,-1.223
0.6150,-1.833
0.6155,-1.833
0.6160,-0.3073
0.6165,0.3031
0.6170,-0.9177
0.6175,-2.749
0.6180,-2.749
0.6185,-1.223
0.6190,-0.002135
0.6195,-0.3073
0.6200,-0.002135
0.6205,1.829
0.6210,2.745
0.6215,1.524
0.6220,-0.002135
0.6225,0.3031
0.6230,1.219
0.6235,1.524
0.6240,0.9134
0.6245,0.9134
0.6250,1.219
0.6255,0.6083
0.6260,-0.6125
0.6265,-2.138
0.6270,-2.138
0.6275,-1.833
0.6280,-1.833
0.6285,-1.223
0.6290,-0.002135
0.6295,2.134
0.6300,2.745
0.6305,1.829
0.6310,0.9134
0.6315,-0.3073
0.6320,-2.749
0.6325,-5.496
0.6330,-7.632
0.6335,-8.242
0.6340,-7.022
0.6345,-4.885
0.6350,-2.444
0.6355,-0.002135
0.6360,1.219
0.6365,2.134
0.6370,4.271
0.6375,7.323
0.6380,9.459
0.6385,10.37
0.6390,10.68
0.6395,11.29
0.6400,9.764
0.6405,5.491
0.6410,1.219
0.6415,-0.002135
0.6420,1.524
0.6425,2.134
0.6430,1.219
0.6435,0.6083
0.6440,-0.3073
0.6445,-4.58
0.6450,-11.6
0.6455,-15.87
0.6460,-14.04
0.6465,-9.768
0.6470,-6.716
0.6475,-4.275
0.6480,-1.833
0.6485,-1.528
0.6490,-5.801
0.6495,-10.99
0.6500,-13.43
0.6505,-14.35
0.6510,-17.09
0.6515,-19.23
0.6520,-17.4
0.6525,-13.43
0.6530,-13.74
0.6535,-18.92
0.6540,-22.28
0.6545,-21.37
0.6550,-19.53
0.6555,-20.14
0.6560,-19.53
0.6565,-14.35
0.6570,-7.327
0.6575,-4.275
0.6580,-4.58
0.6585,-3.664
0.6590,-0.3073
0.6595,1.524
0.6600,1.524
0.6605,0.6083
0.6610,1.524
0.6615,2.439
0.6620,2.439
0.6625,2.745
0.6630,5.491
0.6635,8.849
0.6640,9.764
0.6645,8.543
0.6650,7.628
0.6655,8.543
0.6660,9.764
0.6665,9.154
0.6670,7.323
0.6675,5.797
0.6680,5.186
0.6685,4.271
0.6690,2.745
0.6695,1.829
0.6700,1.829
0.6705,2.745
0.6710,2.134
0.6715,-0.6125
0.6720,-5.801
0.6725,-9.463
0.6730,-10.38
0.6735,-9.463
0.6740,-8.548
0.6745,-7.022
0.6750,-3.664
0.6755,-0.3073
0.6760,0.9134
0.6765,-0.002135
0.6770,-0.3073
0.6775,-0.002135
0.6780,0.6083
0.6785,0.3031
0.6790,1.829
0.6795,5.797
0.6800,8.543
0.6805,6.102
0.6810,-0.002135
0.6815,-5.19
0.6820,-7.022
0.6825,-6.411
0.6830,-4.58
0.6835,-2.444
0.6840,-0.002135
0.6845,-0.002135
0.6850,-2.749
0.6855,-5.801
0.6860,-6.106
0.6865,-3.97
0.6870,-0.9177
0.6875,0.9134
0.6880,2.134
0.6885,2.439
0.6890,1.829
0.6895,-0.002135
0.6900,-3.664
0.6905,-7.327
0.6910,-7.937
0.6915,-5.19
0.6920,-0.6125
0.6925,2.439
0.6930,3.05
0.6935,2.745
0.6940,3.05
0.6945,3.05
0.6950,3.05
0.6955,3.05
0.6960,3.66
0.6965,4.271
0.6970,5.491
0.6975,6.712
0.6980,8.543
0.6985,10.07
0.6990,10.37
0.6995,10.98
0.7000,13.43
0.7005,18.31
0.7010,25.94
0.7015,34.48
0.7020,41.5
0.7025,45.17
0.7030,46.08
0.7035,45.17
0.7040,43.03
0.7045,38.76
0.7050,34.79
0.7055,31.74
0.7060,29.3
0.7065,23.19
0.7070,10.68
0.7075,-7.022
0.7080,-26.25
0.7085,-41.81
0.7090,-50.36
0.7095,-50.66
0.7100,-46.39
0.7105,-41.51
0.7110,-37.85
0.7115,-35.4
0.7120,-35.71
0.7125,-41.2
0.7130,-49.75
0.7135,-53.41
0.7140,-46.7
0.7145,-33.57
0.7150,-21.98
0.7155,-15.87
0.7160,-11.9
0.7165,-7.022
0.7170,-2.444
0.7175,-0.9177
0.7180,-1.528
0.7185,-1.223
0.7190,-0.3073
0.7195,-0.002135
0.7200,-0.002135
0.7205,0.3031
0.7210,0.9134
0.7215,0.6083
0.7220,-0.002135
0.7225,0.6083
0.7230,2.745
0.7235,3.66
0.7240,3.355
0.7245,3.355
0.7250,4.576
0.7255,5.797
0.7260,5.797
0.7265,6.102
0.7270,7.628
0.7275,9.459
0.7280,10.07
0.7285,9.764
0.7290,9.764
0.7295,11.29
0.7300,12.51
0.7305,12.82
0.7310,12.51
0.7315,12.21
0.7320,12.51
0.7325,12.82
0.7330,12.21
0.7335,11.29
0.7340,11.29
0.7345,11.9
0.7350,11.9
0.7355,11.6
0.7360,12.82
0.7365,15.87
0.7370,17.7
0.7375,14.95
0.7380,10.07
0.7385,7.017
0.7390,6.407
0.7395,4.576
0.7400,0.6083
0.7405,-3.97
0.7410,-7.327
0.7415,-8.853
0.7420,-10.07
0.7425,-11.29
0.7430,-12.21
0.7435,-13.43
0.7440,-14.35
0.7445,-13.74
0.7450,-10.68
0.7455,-6.716
0.7460,-3.664
0.7465,-2.138
0.7470,-2.444
0.7475,-3.054
0.7480,-3.664
0.7485,-3.054
0.7490,-1.833
0.7495,-0.9177
0.7500,-0.9177
0.7505,-0.3073
0.7510,1.219
0.7515,4.576
0.7520,7.323
0.7525,8.543
0.7530,8.543
0.7535,8.238
0.7540,7.933
0.7545,7.628
0.7550,7.017
0.7555,6.407
0.7560,6.102
0.7565,6.102
0.7570,5.491
0.7575,4.881
0.7580,4.881
0.7585,5.491
0.7590,6.102
0.7595,5.797
0.7600,4.271
0.7605,3.05
0.7610,3.05
0.7615,3.965
0.7620,3.965
0.7625,3.05
0.7630,2.439
0.7635,3.05
0.7640,3.66
0.7645,3.05
0.7650,1.219
0.7655,0.6083
0.7660,0.9134
0.7665,1.219
0.7670,0.6083
0.7675,-0.002135
0.7680,-0.3073
0.7685,-0.6125
0.7690,-1.223
0.7695,-1.223
0.7700,-0.002135
0.7705,0.6083
0.7710,0.3031
0.7715,-0.9177
0.7720,-2.444
0.7725,-2.749
0.7730,-2.444
0.7735,-1.528
0.7740,-1.223
0.7745,-1.833
0.7750,-3.054
0.7755,-2.749
0.7760,-1.833
0.7765,-1.528
0.7770,-2.138
0.7775,-2.138
0.7780,-0.9177
0.7785,-0.002135
0.7790,-0.3073
0.7795,-1.528
0.7800,-1.528
0.7805,-0.3073
0.7810,-0.002135
0.7815,-0.9177
0.7820,-1.833
0.7825,-2.444
0.7830,-2.444
0.7835,-2.749
0.7840,-2.138
0.7845,-1.223
0.7850,-0.6125
0.7855,-1.223
0.7860,-2.138
0.7865,-3.054
0.7870,-3.054
0.7875,-2.749
0.7880,-1.528
0.7885,-0.9177
0.7890,-1.223
0.7895,-2.138
0.7900,-3.054
0.7905,-3.359
0.7910,-3.359
0.7915,-3.054
0.7920,-1.528
0.7925,0.3031
0.7930,2.439
0.7935,3.355
0.7940,3.66
0.7945,3.965
0.7950,3.355
0.7955,2.745
0.7960,2.439
0.7965,2.134
0.7970,1.524
0.7975,1.219
0.7980,2.134
0.7985,4.271
0.7990,7.017
0.7995,10.07
0.8000,14.65
0.8005,19.84
0.8010,23.5
0.8015,24.72
0.8020,24.41
0.8025,23.5
0.8030,21.67
0.8035,19.53
0.8040,17.09
0.8045,12.21
0.8050,3.66
0.8055,-4.58
0.8060,-8.853
0.8065,-11.29
0.8070,-18.31
0.8075,-31.13
0.8080,-41.81
0.8085,-44.26
0.8090,-40.29
0.8095,-35.71
0.8100,-32.35
0.8105,-30.22
0.8110,-31.44
0.8115,-37.85
0.8120,-44.56
0.8125,-43.34
0.8130,-33.27
0.8135,-20.14
0.8140,-10.68
0.8145,-5.496
0.8150,-2.444
0.8155,-0.6125
0.8160,-0.3073
0.8165,-0.9177
0.8170,-1.223
0.8175,-0.6125
0.8180,0.9134
0.8185,2.439
0.8190,3.355
0.8195,4.576
0.8200,6.407
0.8205,8.849
0.8210,10.07
0.8215,10.07
0.8220,9.764
0.8225,10.07
0.8230,10.37
0.8235,10.68
0.8240,11.29
0.8245,11.9
0.8250,10.68
0.8255,7.933
0.8260,5.797
0.8265,5.491
0.8270,4.881
0.8275,2.745
0.8280,0.9134
0.8285,2.134
0.8290,7.017
0.8295,13.43
0.8300,19.53
0.8305,23.5
0.8310,25.02
0.8315,23.5
0.8320,18.92
0.8325,11.29
0.8330,0.9134
0.8335,-8.853
0.8340,-14.35
0.8345,-14.04
0.8350,-11.6
0.8355,-10.68
0.8360,-9.768
0.8365,-7.327
0.8370,-5.496
0.8375,-6.716
0.8380,-10.07
0.8385,-11.29
0.8390,-10.07
0.8395,-8.242
0.8400,-7.632
0.8405,-7.022
0.8410,-6.106
0.8415,-7.022
0.8420,-9.768
0.8425,-10.68
0.8430,-7.632
0.8435,-3.054
0.8440,-0.002135
0.8445,0.3031
0.8450,0.9134
0.8455,1.524
0.8460,2.439
0.8465,3.05
0.8470,3.66
0.8475,3.355
0.8480,2.134
0.8485,1.829
0.8490,3.66
0.8495,5.797
0.8500,5.491
0.8505,3.965
0.8510,3.66
0.8515,4.271
0.8520,4.881
0.8525,4.881
0.8530,5.797
0.8535,6.407
0.8540,4.881
0.8545,2.134
0.8550,1.219
0.8555,3.05
0.8560,5.491
0.8565,7.017
0.8570,7.628
0.8575,9.154
0.8580,11.29
0.8585,13.12
0.8590,14.95
0.8595,16.78
0.8600,17.39
0.8605,16.48
0.8610,16.17
0.8615,17.39
0.8620,18.61
0.8625,15.56
0.8630,8.849
0.8635,1.829
0.8640,-1.833
0.8645,-3.664
0.8650,-4.275
0.8655,-4.275
0.8660,-2.749
0.8665,-1.833
0.8670,-3.664
0.8675,-7.327
0.8680,-9.463
0.8685,-9.158
0.8690,-10.38
0.8695,-14.96
0.8700,-19.23
0.8705,-20.14
0.8710,-17.4
0.8715,-14.65
0.8720,-13.43
0.8725,-12.21
0.8730,-10.99
0.8735,-9.463
0.8740,-7.937
0.8745,-6.106
0.8750,-3.054
0.8755,-0.002135
0.8760,2.745
0.8765,3.965
0.8770,4.576
0.8775,4.576
0.8780,4.271
0.8785,3.965
0.8790,4.271
0.8795,5.186
0.8800,5.797
0.8805,4.881
0.8810,2.134
0.8815,-0.3073
0.8820,-0.6125
0.8825,0.3031
0.8830,0.9134
0.8835,-0.002135
0.8840,-0.6125
0.8845,-0.002135
0.8850,0.6083
0.8855,1.524
0.8860,1.219
0.8865,0.9134
0.8870,1.219
0.8875,2.439
0.8880,3.05
0.8885,2.134
0.8890,0.3031
0.8895,-0.002135
0.8900,2.134
0.8905,4.881
0.8910,5.797
0.8915,5.491
0.8920,5.797
0.8925,7.017
0.8930,8.849
0.8935,10.98
0.8940,13.73
0.8945,14.65
0.8950,13.12
0.8955,11.6
0.8960,12.21
0.8965,12.21
0.8970,8.849
0.8975,3.355
0.8980,0.9134
0.8985,3.05
0.8990,6.712
0.8995,8.543
0.9000,7.628
0.9005,2.745
0.9010,-5.801
0.9015,-14.35
0.9020,-16.79
0.9025,-13.74
0.9030,-9.768
0.9035,-7.327
0.9040,-6.106
0.9045,-7.327
0.9050,-14.04
0.9055,-23.2
0.9060,-27.16
0.9065,-21.98
0.9070,-13.43
0.9075,-8.548
0.9080,-6.411
0.9085,-3.97
0.9090,-1.223
0.9095,-1.223
0.9100,-3.054
0.9105,-3.359
0.9110,-1.528
0.9115,-0.3073
0.9120,-0.9177
0.9125,-1.223
0.9130,-0.6125
0.9135,0.9134
0.9140,2.745
0.9145,3.66
0.9150,3.66
0.9155,2.439
0.9160,3.05
0.9165,5.186
0.9170,6.712
0.9175,4.576
0.9180,0.6083
0.9185,-0.6125
0.9190,0.6083
0.9195,1.524
0.9200,0.9134
0.9205,-0.002135
0.9210,0.9134
0.9215,0.6083
0.9220,-1.223
0.9225,-3.359
0.9230,-2.444
0.9235,0.3031
0.9240,1.829
0.9245,0.6083
0.9250,-1.223
0.9255,-2.444
0.9260,-2.138
0.9265,-0.3073
0.9270,0.9134
0.9275,1.219
0.9280,-0.002135
0.9285,-1.223
0.9290,-1.528
0.9295,-1.528
0.9300,-1.528
0.9305,-1.528
0.9310,-0.6125
0.9315,0.6083
0.9320,1.219
0.9325,0.3031
0.9330,-0.9177
0.9335,-1.833
0.9340,-1.833
0.9345,-1.223
0.9350,-0.3073
0.9355,-0.002135
0.9360,-0.002135
0.9365,-0.002135
0.9370,-0.002135
0.9375,0.3031
0.9380,1.219
0.9385,2.745
0.9390,3.66
0.9395,3.355
0.9400,2.439
0.9405,2.745
0.9410,3.965
0.9415,5.186
0.9420,6.102
0.9425,7.628
0.9430,9.764
0.9435,10.98
0.9440,10.98
0.9445,10.98
0.9450,12.21
0.9455,14.04
0.9460,16.78
0.9465,18.61
0.9470,19.23
0.9475,18
0.9480,17.7
0.9485,18.92
0.9490,18.61
0.9495,14.04
0.9500,7.323
0.9505,4.271
0.9510,3.05
0.9515,-1.833
0.9520,-12.52
0.9525,-22.28
0.9530,-25.64
0.9535,-25.33
0.9540,-27.16
0.9545,-29.3
0.9550,-26.55
0.9555,-19.53
0.9560,-14.35
0.9565,-14.04
0.9570,-15.87
0.9575,-15.87
0.9580,-13.43
0.9585,-11.29
0.9590,-12.21
0.9595,-15.26
0.9600,-17.09
0.9605,-14.04
0.9610,-7.327
0.9615,-1.833
0.9620,0.3031
0.9625,1.829
0.9630,4.271
0.9635,5.797
0.9640,5.186
0.9645,3.66
0.9650,3.66
0.9655,3.05
0.9660,0.6083
0.9665,-1.833
0.9670,-2.749
0.9675,-2.444
0.9680,-2.138
0.9685,-1.833
0.9690,-0.3073
0.9695,0.9134
0.9700,0.9134
0.9705,-0.002135
0.9710,0.3031
0.9715,1.829
0.9720,2.134
0.9725,2.745
0.9730,5.186
0.9735,9.459
0.9740,12.51
0.9745,14.04
0.9750,14.04
0.9755,11.9
0.9760,6.102
0.9765,-0.9177
0.9770,-5.496
0.9775,-7.327
0.9780,-8.548
0.9785,-9.158
0.9790,-6.716
0.9795,-1.833
0.9800,2.745
0.9805,5.797
0.9810,9.459
0.9815,13.73
0.9820,16.48
0.9825,14.04
0.9830,7.628
0.9835,0.3031
0.9840,-4.885
0.9845,-7.632
0.9850,-7.327
0.9855,-4.885
0.9860,-1.528
0.9865,-0.6125
0.9870,-4.275
0.9875,-11.29
0.9880,-18.01
0.9885,-20.45
0.9890,-18.31
0.9895,-14.35
0.9900,-11.6
0.9905,-10.07
0.9910,-8.548
0.9915,-6.411
0.9920,-5.496
0.9925,-5.19
0.9930,-4.275
0.9935,-2.444
0.9940,-0.002135
0.9945,1.219
0.9950,2.745
0.9955,3.355
0.9960,2.439
0.9965,1.219
0.9970,2.134
0.9975,5.491
0.9980,7.933
0.9985,7.628
0.9990,5.797
0.9995,5.186
1.0000,6.102
1.0005,6.407
1.0010,4.881
1.0015,3.965
1.0020,5.186
1.0025,6.407
1.0030,6.407
1.0035,4.576
1.0040,3.05
1.0045,3.05
1.0050,3.05
1.0055,2.134
1.0060,1.219
1.0065,1.829
1.0070,3.66
1.0075,5.491
1.0080,6.102
1.0085,6.407
1.0090,7.628
1.0095,9.459
1.0100,10.68
1.0105,10.68
1.0110,10.37
1.0115,11.29
1.0120,12.21
1.0125,11.6
1.0130,9.154
1.0135,6.712
1.0140,3.965
1.0145,-0.002135
1.0150,-5.19
1.0155,-7.327
1.0160,-4.885
1.0165,-1.223
1.0170,-1.223
1.0175,-3.054
1.0180,-3.664
1.0185,-2.749
1.0190,-4.275
1.0195,-9.463
1.0200,-12.52
1.0205,-10.07
1.0210,-4.58
1.0215,-0.9177
1.0220,-0.002135
1.0225,-0.002135
1.0230,0.6083
1.0235,0.9134
1.0240,0.6083
1.0245,1.524
1.0250,3.355
1.0255,4.576
1.0260,4.576
1.0265,4.271
1.0270,3.66
1.0275,4.271
1.0280,5.797
1.0285,6.102
1.0290,3.965
1.0295,1.219
1.0300,0.9134
1.0305,2.745
1.0310,3.965
1.0315,3.965
1.0320,4.576
1.0325,7.017
1.0330,8.238
1.0335,8.238
1.0340,9.764
1.0345,13.12
1.0350,14.34
1.0355,11.9
1.0360,9.764
1.0365,10.68
1.0370,10.07
1.0375,3.965
1.0380,-5.801
1.0385,-13.74
1.0390,-18.01
1.0395,-21.06
1.0400,-23.5
1.0405,-22.28
1.0410,-17.7
1.0415,-13.13
1.0420,-10.38
1.0425,-8.853
1.0430,-8.242
1.0435,-9.768
1.0440,-11.9
1.0445,-12.21
1.0450,-9.463
1.0455,-4.885
1.0460,-0.9177
1.0465,0.6083
1.0470,0.6083
1.0475,-0.3073
1.0480,-1.223
1.0485,-0.002135
1.0490,2.439
1.0495,4.881
1.0500,5.797
1.0505,4.881
1.0510,3.355
1.0515,3.355
1.0520,3.965
1.0525,3.05
1.0530,-0.6125
1.0535,-6.411
1.0540,-11.9
1.0545,-14.65
1.0550,-14.65
1.0555,-11.6
1.0560,-7.022
1.0565,-3.359
1.0570,-2.749
1.0575,-3.664
1.0580,-3.359
1.0585,-1.223
1.0590,1.524
1.0595,3.355
1.0600,3.05
1.0605,1.829
1.0610,0.6083
1.0615,-0.002135
1.0620,-0.002135
1.0625,-0.002135
1.0630,-0.9177
1.0635,-1.833
1.0640,-1.528
1.0645,-0.6125
1.0650,-0.002135
1.0655,0.6083
1.0660,1.524
1.0665,2.134
1.0670,2.439
1.0675,2.134
1.0680,1.524
1.0685,1.219
1.0690,1.829
1.0695,3.05
1.0700,5.186
1.0705,8.238
1.0710,12.21
1.0715,16.17
1.0720,18.31
1.0725,18.31
1.0730,17.09
1.0735,16.48
1.0740,15.87
1.0745,14.04
1.0750,10.37
1.0755,7.628
1.0760,7.017
1.0765,7.628
1.0770,6.712
1.0775,3.355
1.0780,-1.528
1.0785,-6.716
1.0790,-10.07
1.0795,-11.29
1.0800,-9.768
1.0805,-4.885
1.0810,1.219
1.0815,5.797
1.0820,5.797
1.0825,1.219
1.0830,-4.885
1.0835,-10.07
1.0840,-13.43
1.0845,-15.87
1.0850,-17.7
1.0855,-18.62
1.0860,-19.23
1.0865,-20.76
1.0870,-22.59
1.0875,-22.28
1.0880,-19.53
1.0885,-15.57
1.0890,-12.82
1.0895,-12.52
1.0900,-13.43
1.0905,-14.04
1.0910,-12.52
1.0915,-8.548
1.0920,-4.885
1.0925,-2.138
1.0930,-0.6125
1.0935,0.3031
1.0940,1.219
1.0945,2.439
1.0950,3.965
1.0955,4.881
1.0960,5.186
1.0965,5.186
1.0970,5.491
1.0975,6.102
1.0980,6.102
1.0985,5.797
1.0990,6.407
1.0995,7.933
1.1000,8.543
1.1005,8.238
1.1010,7.628
1.1015,7.933
1.1020,6.407
1.1025,2.134
1.1030,-2.138
1.1035,-3.359
1.1040,-0.6125
1.1045,2.134
1.1050,3.66
1.1055,3.66
1.1060,3.355
1.1065,3.66
1.1070,5.186
1.1075,7.933
1.1080,10.07
1.1085,11.29
1.1090,11.29
1.1095,10.37
1.1100,7.933
1.1105,3.66
1.1110,-0.3073
1.1115,-2.138
1.1120,-1.223
1.1125,-0.002135
1.1130,-0.002135
1.1135,-0.6125
1.1140,-0.6125
1.1145,-0.002135
1.1150,0.6083
1.1155,1.829
1.1160,2.439
1.1165,2.745
1.1170,2.745
1.1175,3.05
1.1180,3.66
1.1185,3.965
1.1190,4.271
1.1195,4.271
1.1200,4.271
1.1205,4.881
1.1210,5.797
1.1215,6.102
1.1220,5.797
1.1225,5.186
1.1230,4.576
1.1235,4.576
1.1240,4.271
1.1245,3.05
1.1250,2.439
1.1255,2.745
1.1260,3.05
1.1265,2.134
1.1270,0.9134
1.1275,1.829
1.1280,4.271
1.1285,5.797
1.1290,3.66
1.1295,-0.3073
1.1300,-3.359
1.1305,-3.054
1.1310,-0.9177
1.1315,0.9134
1.1320,1.219
1.1325,-0.3073
1.1330,-3.359
1.1335,-5.801
1.1340,-7.022
1.1345,-7.327
1.1350,-6.411
1.1355,-4.885
1.1360,-3.359
1.1365,-3.054
1.1370,-2.444
1.1375,-0.6125
1.1380,2.134
1.1385,3.05
1.1390,0.3031
1.1395,-3.664
1.1400,-6.411
1.1405,-6.411
1.1410,-4.885
1.1415,-2.138
1.1420,2.745
1.1425,9.154
1.1430,14.04
1.1435,15.56
1.1440,16.17
1.1445,18.61
1.1450,21.06
1.1455,21.06
1.1460,18.31
1.1465,15.56
1.1470,14.34
1.1475,11.29
1.1480,4.881
1.1485,-2.138
1.1490,-7.937
1.1495,-10.68
1.1500,-10.38
1.1505,-5.801
1.1510,1.829
1.1515,8.543
1.1520,11.6
1.1525,11.6
1.1530,9.154
1.1535,2.439
1.1540,-8.853
1.1545,-19.53
1.1550,-23.2
1.1555,-21.37
1.1560,-19.84
1.1565,-21.06
1.1570,-22.28
1.1575,-22.28
1.1580,-22.89
1.1585,-25.33
1.1590,-26.86
1.1595,-27.47
1.1600,-28.39
1.1605,-29
1.1610,-25.94
1.1615,-18.31
1.1620,-10.38
1.1625,-7.022
1.1630,-10.99
1.1635,-19.53
1.1640,-26.86
1.1645,-28.08
1.1650,-21.98
1.1655,-14.04
1.1660,-8.548
1.1665,-6.716
1.1670,-4.885
1.1675,-2.444
1.1680,-1.223
1.1685,-0.6125
1.1690,0.3031
1.1695,1.829
1.1700,2.745
1.1705,3.05
1.1710,4.576
1.1715,6.407
1.1720,6.102
1.1725,4.271
1.1730,4.576
1.1735,7.933
1.1740,11.29
1.1745,12.51
1.1750,12.21
1.1755,11.9
1.1760,12.21
1.1765,13.73
1.1770,16.17
1.1775,16.48
1.1780,14.04
1.1785,10.37
1.1790,9.154
1.1795,10.07
1.1800,10.37
1.1805,8.543
1.1810,7.323
1.1815,7.933
1.1820,9.764
1.1825,10.07
1.1830,8.238
1.1835,4.576
1.1840,0.9134
1.1845,-1.528
1.1850,-2.138
1.1855,-2.444
1.1860,-3.664
1.1865,-3.97
1.1870,-1.223
1.1875,2.439
1.1880,4.576
1.1885,3.965
1.1890,3.965
1.1895,5.186
1.1900,5.186
1.1905,2.439
1.1910,-0.002135
1.1915,-0.3073
1.1920,0.3031
1.1925,0.6083
1.1930,0.6083
1.1935,1.829
1.1940,3.66
1.1945,3.66
1.1950,2.134
1.1955,1.219
1.1960,2.134
1.1965,3.05
1.1970,3.05
1.1975,2.745
1.1980,2.745
1.1985,3.66
1.1990,4.576
1.1995,4.576
1.2000,3.965
1.2005,3.355
1.2010,3.965
1.2015,4.576
1.2020,4.271
1.2025,3.355
1.2030,3.355
1.2035,4.271
1.2040,3.66
1.2045,2.439
1.2050,2.439
1.2055,3.66
1.2060,4.271
1.2065,2.745
1.2070,0.9134
1.2075,1.219
1.2080,2.134
1.2085,1.829
1.2090,0.9134
1.2095,0.9134
1.2100,1.524
1.2105,0.9134
1.2110,-0.002135
1.2115,-0.002135
1.2120,0.9134
1.2125,0.9134
1.2130,0.3031
1.2135,0.3031
1.2140,1.219
1.2145,1.829
1.2150,2.134
1.2155,2.439
1.2160,2.439
1.2165,1.219
1.2170,-0.002135
1.2175,-0.9177
1.2180,-0.6125
1.2185,0.6083
1.2190,2.134
1.2195,3.05
1.2200,1.829
1.2205,-0.002135
1.2210,0.3031
1.2215,3.355
1.2220,5.797
1.2225,5.797
1.2230,5.491
1.2235,7.323
1.2240,9.459
1.2245,9.764
1.2250,10.07
1.2255,14.04
1.2260,20.75
1.2265,25.94
1.2270,27.16
1.2275,26.24
1.2280,22.89
1.2285,16.78
1.2290,10.98
1.2295,8.238
1.2300,6.102
1.2305,-0.6125
1.2310,-11.6
1.2315,-21.37
1.2320,-29.61
1.2325,-41.81
1.2330,-57.68
1.2335,-65.92
1.2340,-59.52
1.2345,-44.26
1.2350,-33.27
1.2355,-29.91
1.2360,-28.39
1.2365,-23.81
1.2370,-18.31
1.2375,-14.35
1.2380,-11.6
1.2385,-8.548
1.2390,-5.496
1.2395,-3.054
1.2400,-0.3073
1.2405,2.134
1.2410,3.66
1.2415,3.355
1.2420,2.439
1.2425,2.439
1.2430,3.66
1.2435,5.186
1.2440,5.186
1.2445,3.66
1.2450,2.134
1.2455,2.439
1.2460,3.965
1.2465,5.491
1.2470,6.102
1.2475,6.102
1.2480,6.102
1.2485,5.797
1.2490,4.881
1.2495,4.271
1.2500,3.965
1.2505,4.271
1.2510,4.271
1.2515,5.186
1.2520,7.017
1.2525,9.459
1.2530,10.98
1.2535,9.764
1.2540,7.323
1.2545,5.491
1.2550,5.797
1.2555,8.238
1.2560,11.29
1.2565,13.43
1.2570,14.34
1.2575,14.34
1.2580,11.9
1.2585,6.102
1.2590,-0.002135
1.2595,-2.749
1.2600,-0.6125
1.2605,1.829
1.2610,2.134
1.2615,0.3031
1.2620,-1.528
1.2625,-4.275
1.2630,-8.242
1.2635,-10.07
1.2640,-7.327
1.2645,-3.359
1.2650,-4.885
1.2655,-11.9
1.2660,-17.4
1.2665,-15.87
1.2670,-10.68
1.2675,-8.242
1.2680,-9.768
1.2685,-10.99
1.2690,-9.463
1.2695,-7.632
1.2700,-8.242
1.2705,-10.38
1.2710,-10.07
1.2715,-6.716
1.2720,-2.749
1.2725,-0.9177
1.2730,-1.528
1.2735,-1.223
1.2740,0.6083
1.2745,3.355
1.2750,4.881
1.2755,5.491
1.2760,5.491
1.2765,5.491
1.2770,4.881
1.2775,4.881
1.2780,6.407
1.2785,9.764
1.2790,13.73
1.2795,17.7
1.2800,21.67
1.2805,25.02
1.2810,27.16
1.2815,28.38
1.2820,28.69
1.2825,28.38
1.2830,27.16
1.2835,24.72
1.2840,20.14
1.2845,11.9
1.2850,-0.002135
1.2855,-14.04
1.2860,-26.55
1.2865,-33.88
1.2870,-32.96
1.2875,-25.03
1.2880,-16.79
1.2885,-15.87
1.2890,-22.28
1.2895,-28.08
1.2900,-25.33
1.2905,-15.87
1.2910,-7.632
1.2915,-5.19
1.2920,-6.716
1.2925,-8.242
1.2930,-7.327
1.2935,-4.58
1.2940,-1.528
1.2945,-0.002135
1.2950,-0.002135
1.2955,-0.002135
1.2960,-0.002135
1.2965,1.829
1.2970,3.965
1.2975,5.186
1.2980,4.271
1.2985,3.66
1.2990,4.576
1.2995,7.017
1.3000,8.238
1.3005,7.933
1.3010,7.628
1.3015,8.238
1.3020,8.238
1.3025,5.491
1.3030,2.439
1.3035,2.134
1.3040,3.355
1.3045,1.829
1.3050,-3.664
1.3055,-9.463
1.3060,-10.68
1.3065,-7.937
1.3070,-4.275
1.3075,-1.223
1.3080,1.524
1.3085,3.05
1.3090,0.6083
1.3095,-4.275
1.3100,-7.632
1.3105,-7.022
1.3110,-4.58
1.3115,-3.664
1.3120,-3.97
1.3125,-3.664
1.3130,-1.528
1.3135,0.6083
1.3140,2.439
1.3145,3.965
1.3150,5.186
1.3155,6.102
1.3160,6.712
1.3165,7.323
1.3170,8.238
1.3175,8.238
1.3180,7.017
1.3185,5.797
1.3190,5.186
1.3195,5.797
1.3200,7.628
1.3205,10.68
1.3210,12.82
1.3215,10.98
1.3220,5.797
1.3225,1.524
1.3230,1.829
1.3235,4.881
1.3240,5.797
1.3245,2.134
1.3250,-2.749
1.3255,-6.411
1.3260,-6.411
1.3265,-3.97
1.3270,-0.3073
1.3275,2.439
1.3280,3.355
1.3285,-0.002135
1.3290,-7.327
1.3295,-14.65
1.3300,-17.09
1.3305,-13.43
1.3310,-7.632
1.3315,-5.801
1.3320,-8.853
1.3325,-13.43
1.3330,-14.65
1.3335,-13.13
1.3340,-11.6
1.3345,-10.68
1.3350,-9.768
1.3355,-7.327
1.3360,-3.97
1.3365,-1.528
1.3370,-0.3073
1.3375,0.6083
1.3380,2.134
1.3385,3.355
1.3390,3.355
1.3395,4.271
1.3400,7.323
1.3405,9.459
1.3410,9.154
1.3415,7.933
1.3420,9.154
1.3425,11.9
1.3430,12.51
1.3435,10.37
1.3440,8.849
1.3445,10.07
1.3450,10.07
1.3455,7.933
1.3460,5.797
1.3465,4.271
1.3470,0.6083
1.3475,-5.801
1.3480,-11.29
1.3485,-12.52
1.3490,-10.99
1.3495,-9.768
1.3500,-7.937
1.3505,-4.885
1.3510,-2.444
1.3515,-0.6125
1.3520,3.05
1.3525,9.154
1.3530,12.21
1.3535,9.154
1.3540,6.102
1.3545,7.933
1.3550,11.29
1.3555,10.07
1.3560,6.712
1.3565,7.323
1.3570,10.98
1.3575,11.9
1.3580,9.459
1.3585,7.017
1.3590,3.05
1.3595,-6.411
1.3600,-17.09
1.3605,-17.4
1.3610,-7.327
1.3615,-0.002135
1.3620,-3.664
1.3625,-10.38
1.3630,-8.548
1.3635,-0.002135
1.3640,5.186
1.3645,4.576
1.3650,3.965
1.3655,7.017
1.3660,10.07
1.3665,10.68
1.3670,10.98
1.3675,12.21
1.3680,12.21
1.3685,9.764
1.3690,7.933
1.3695,7.933
1.3700,7.628
1.3705,4.271
1.3710,-1.833
1.3715,-10.68
1.3720,-20.76
1.3725,-29.61
1.3730,-32.05
1.3735,-25.64
1.3740,-14.04
1.3745,-4.58
1.3750,-0.002135
1.3755,-0.3073
1.3760,-3.359
1.3765,-6.716
1.3770,-6.411
1.3775,-0.9177
1.3780,7.323
1.3785,13.12
1.3790,16.48
1.3795,20.45
1.3800,25.63
1.3805,29.6
1.3810,31.13
1.3815,33.57
1.3820,36.32
1.3825,32.35
1.3830,18.31
1.3835,-0.002135
1.3840,-14.65
1.3845,-25.33
1.3850,-36.93
1.3855,-49.14
1.3860,-55.55
1.3865,-51.89
1.3870,-41.51
1.3875,-30.22
1.3880,-21.37
1.3885,-16.48
1.3890,-17.4
1.3895,-21.98
1.3900,-23.81
1.3905,-20.76
1.3910,-15.26
1.3915,-11.29
1.3920,-8.548
1.3925,-4.885
1.3930,-1.528
1.3935,-0.3073
1.3940,-0.3073
1.3945,1.219
1.3950,3.965
1.3955,5.186
1.3960,4.881
1.3965,5.186
1.3970,6.102
1.3975,6.102
1.3980,4.881
1.3985,4.881
1.3990,6.407
1.3995,7.628
1.4000,7.017
1.4005,6.102
1.4010,5.491
1.4015,3.355
1.4020,-0.9177
1.4025,-4.275
1.4030,-2.444
1.4035,2.439
1.4040,7.933
1.4045,12.82
1.4050,17.39
1.4055,18.92
1.4060,13.12
1.4065,1.524
1.4070,-7.937
1.4075,-9.463
1.4080,-6.411
1.4085,-4.885
1.4090,-6.106
1.4095,-7.632
1.4100,-7.632
1.4105,-7.937
1.4110,-7.632
1.4115,-5.19
1.4120,-1.833
1.4125,-0.002135
1.4130,-1.833
1.4135,-3.664
1.4140,-2.138
1.4145,2.134
1.4150,7.017
1.4155,9.764
1.4160,10.68
1.4165,12.51
1.4170,14.65
1.4175,16.78
1.4180,18.31
1.4185,18.31
1.4190,17.09
1.4195,14.04
1.4200,10.98
1.4205,9.459
1.4210,8.543
1.4215,6.407
1.4220,2.439
1.4225,-0.3073
1.4230,-0.6125
1.4235,1.524
1.4240,5.491
1.4245,10.68
1.4250,15.26
1.4255,17.09
1.4260,15.87
1.4265,14.34
1.4270,14.34
1.4275,14.04
1.4280,11.29
1.4285,7.323
1.4290,4.881
1.4295,4.271
1.4300,4.271
1.4305,3.965
1.4310,3.355
1.4315,2.439
1.4320,1.829
1.4325,0.9134
1.4330,0.6083
1.4335,0.3031
1.4340,0.3031
1.4345,0.9134
1.4350,1.219
1.4355,-0.002135
1.4360,-1.833
1.4365,-2.444
1.4370,-1.528
1.4375,-0.9177
1.4380,-2.138
1.4385,-3.97
1.4390,-3.664
1.4395,-2.138
1.4400,-1.223
1.4405,-2.444
1.4410,-3.97
1.4415,-3.97
1.4420,-1.833
1.4425,-0.002135
1.4430,-0.002135
1.4435,-1.223
1.4440,-2.138
1.4445,-0.6125
1.4450,0.9134
1.4455,1.524
1.4460,2.745
1.4465,5.491
1.4470,8.543
1.4475,8.238
1.4480,6.102
1.4485,5.491
1.4490,7.323
1.4495,8.238
1.4500,7.017
1.4505,3.05
1.4510,-3.054
1.4515,-10.68
1.4520,-15.26
1.4525,-12.52
1.4530,-5.496
1.4535,-1.528
1.4540,-2.444
1.4545,-3.359
1.4550,-2.138
1.4555,-3.359
1.4560,-9.463
1.4565,-16.18
1.4570,-17.7
1.4575,-15.26
1.4580,-12.82
1.4585,-10.99
1.4590,-5.801
1.4595,2.134
1.4600,9.154
1.4605,12.51
1.4610,13.12
1.4615,14.34
1.4620,16.48
1.4625,16.48
1.4630,10.98
1.4635,-0.002135
1.4640,-12.82
1.4645,-23.2
1.4650,-29.3
1.4655,-32.96
1.4660,-33.88
1.4665,-30.83
1.4670,-23.81
1.4675,-16.18
1.4680,-13.74
1.4685,-17.09
1.4690,-22.28
1.4695,-24.42
1.4700,-21.06
1.4705,-14.04
1.4710,-8.548
1.4715,-5.496
1.4720,-3.664
1.4725,-0.6125
1.4730,2.134
1.4735,3.355
1.4740,3.66
1.4745,3.965
1.4750,3.66
1.4755,1.829
1.4760,-0.002135
1.4765,-0.002135
1.4770,1.219
1.4775,0.6083
1.4780,-0.9177
1.4785,-1.528
1.4790,-0.002135
1.4795,1.524
1.4800,1.219
1.4805,1.219
1.4810,2.745
1.4815,4.271
1.4820,4.576
1.4825,4.576
1.4830,5.186
1.4835,5.491
1.4840,4.576
1.4845,3.66
1.4850,3.66
1.4855,3.05
1.4860,-0.002135
1.4865,-4.275
1.4870,-7.327
1.4875,-7.022
1.4880,-4.58
1.4885,-1.833
1.4890,0.6083
1.4895,2.439
1.4900,3.05
1.4905,3.05
1.4910,3.355
1.4915,4.271
1.4920,4.881
1.4925,4.576
1.4930,4.271
1.4935,4.576
1.4940,4.881
1.4945,4.576
1.4950,4.576
1.4955,5.797
1.4960,7.933
1.4965,9.764
1.4970,12.21
1.4975,14.95
1.4980,17.39
1.4985,18
1.4990,16.78
1.4995,15.56
1.5000,14.65
1.5005,13.43
1.5010,12.82
1.5015,15.26
1.5020,19.84
1.5025,21.36
1.5030,13.73
1.5035,-2.444
1.5040,-18.62
1.5045,-25.03
1.5050,-20.45
1.5055,-13.43
1.5060,-10.68
1.5065,-10.38
1.5070,-7.937
1.5075,-4.885
1.5080,-7.327
1.5085,-15.87
1.5090,-22.89
1.5095,-21.67
1.5100,-16.18
1.5105,-12.52
1.5110,-10.38
1.5115,-6.716
1.5120,-1.528
1.5125,-0.3073
1.5130,-3.054
1.5135,-4.58
1.5140,-2.444
1.5145,-0.002135
1.5150,-0.3073
1.5155,-1.223
1.5160,0.3031
1.5165,3.05
1.5170,3.965
1.5175,3.05
1.5180,2.745
1.5185,2.439
1.5190,1.829
1.5195,0.9134
1.5200,1.219
1.5205,2.439
1.5210,3.05
1.5215,3.355
1.5220,3.965
1.5225,4.576
1.5230,3.965
1.5235,2.439
1.5240,2.134
1.5245,3.66
1.5250,5.491
1.5255,5.491
1.5260,4.881
1.5265,4.576
1.5270,5.186
1.5275,6.102
1.5280,5.491
1.5285,3.965
1.5290,3.05
1.5295,4.271
1.5300,5.491
1.5305,4.271
1.5310,0.3031
1.5315,-3.97
1.5320,-6.716
1.5325,-5.496
1.5330,-1.223
1.5335,5.186
1.5340,10.68
1.5345,11.6
1.5350,7.933
1.5355,3.05
1.5360,0.3031
1.5365,-0.002135
1.5370,-0.002135
1.5375,-0.002135
1.5380,-0.3073
1.5385,-0.002135
1.5390,0.3031
1.5395,0.9134
1.5400,0.9134
1.5405,0.3031
1.5410,-0.002135
1.5415,-0.002135
1.5420,-0.002135
1.5425,-0.3073
1.5430,-0.9177
1.5435,-0.9177
1.5440,0.6083
1.5445,3.05
1.5450,5.491
1.5455,6.407
1.5460,5.491
1.5465,3.965
1.5470,3.355
1.5475,4.271
1.5480,5.491
1.5485,5.186
1.5490,4.271
1.5495,3.05
1.5500,1.829
1.5505,-0.002135
1.5510,-1.528
1.5515,-1.223
1.5520,0.9134
1.5525,3.05
1.5530,2.134
1.5535,-0.002135
1.5540,-2.138
1.5545,-3.054
1.5550,-2.444
1.5555,-1.223
1.5560,-0.9177
1.5565,-2.138
1.5570,-4.58
1.5575,-6.716
1.5580,-7.022
1.5585,-6.716
1.5590,-7.022
1.5595,-7.632
1.5600,-7.022
1.5605,-5.19
1.5610,-3.359
1.5615,-2.749
1.5620,-3.054
1.5625,-3.97
1.5630,-3.97
1.5635,-2.138
1.5640,0.9134
1.5645,3.66
1.5650,3.965
1.5655,3.66
1.5660,5.491
1.5665,8.849
1.5670,10.37
1.5675,7.933
1.5680,4.271
1.5685,3.05
1.5690,4.271
1.5695,3.965
1.5700,-0.002135
1.5705,-7.937
1.5710,-15.87
1.5715,-19.84
1.5720,-18.01
1.5725,-12.21
1.5730,-7.327
1.5735,-7.022
1.5740,-10.07
1.5745,-12.21
1.5750,-10.38
1.5755,-5.19
1.5760,-0.002135
1.5765,2.134
1.5770,1.829
1.5775,1.524
1.5780,2.745
1.5785,3.965
1.5790,3.66
1.5795,3.355
1.5800,4.881
1.5805,6.712
1.5810,5.797
1.5815,3.355
1.5820,3.05
1.5825,4.576
1.5830,4.881
1.5835,3.05
1.5840,2.439
1.5845,4.271
1.5850,6.407
1.5855,6.407
1.5860,6.102
1.5865,6.102
1.5870,5.491
1.5875,3.965
1.5880,2.439
1.5885,1.829
1.5890,-0.002135
1.5895,-2.444
1.5900,-3.97
1.5905,-3.359
1.5910,-2.138
1.5915,-1.223
1.5920,-0.002135
1.5925,0.9134
1.5930,-0.3073
1.5935,-3.97
1.5940,-4.58
1.5945,-1.223
1.5950,1.829
1.5955,1.219
1.5960,-2.444
1.5965,-6.716
1.5970,-10.07
1.5975,-11.6
1.5980,-10.07
1.5985,-5.496
1.5990,-2.138
1.5995,-1.528
1.6000,-1.528
1.6005,-0.002135
1.6010,1.829
1.6015,-0.002135
1.6020,-4.885
1.6025,-8.548
1.6030,-9.158
1.6035,-7.937
1.6040,-5.496
1.6045,-2.444
1.6050,0.6083
1.6055,1.829
1.6060,1.524
1.6065,0.9134
1.6070,0.3031
1.6075,-0.9177
1.6080,-2.138
1.6085,-1.833
1.6090,-0.9177
1.6095,-0.9177
1.6100,-0.9177
1.6105,-0.3073
1.6110,0.9134
1.6115,1.219
1.6120,-0.002135
1.6125,-0.9177
1.6130,-0.002135
1.6135,1.524
1.6140,1.524
1.6145,-1.833
1.6150,-7.327
1.6155,-10.38
1.6160,-9.463
1.6165,-5.496
1.6170,-3.054
1.6175,-3.664
1.6180,-4.885
1.6185,-4.275
1.6190,-2.444
1.6195,-0.3073
1.6200,0.6083
1.6205,1.829
1.6210,2.745
1.6215,2.745
1.6220,3.05
1.6225,4.881
1.6230,7.628
1.6235,9.459
1.6240,10.07
1.6245,10.07
1.6250,10.37
1.6255,11.6
1.6260,13.43
1.6265,14.65
1.6270,14.34
1.6275,12.21
1.6280,10.07
1.6285,9.154
1.6290,8.543
1.6295,7.017
1.6300,4.881
1.6305,3.355
1.6310,2.439
1.6315,1.524
1.6320,0.9134
1.6325,1.219
1.6330,2.134
1.6335,1.524
1.6340,0.3031
1.6345,-0.002135
1.6350,0.6083
1.6355,1.829
1.6360,1.524
1.6365,0.3031
1.6370,-0.002135
1.6375,-0.002135
1.6380,0.3031
1.6385,0.3031
1.6390,0.3031
1.6395,0.6083
1.6400,0.6083
1.6405,-0.3073
1.6410,-2.138
1.6415,-2.749
1.6420,-2.138
1.6425,-1.833
1.6430,-2.444
1.6435,-2.749
1.6440,-1.833
1.6445,-0.6125
1.6450,-0.3073
1.6455,-1.833
1.6460,-3.054
1.6465,-2.444
1.6470,-0.6125
1.6475,-0.002135
1.6480,-0.002135
1.6485,-0.6125
1.6490,-1.223
1.6495,-2.138
1.6500,-3.054
1.6505,-3.054
1.6510,-2.138
1.6515,-1.528
1.6520,-1.833
1.6525,-3.054
1.6530,-3.054
1.6535,-2.749
1.6540,-2.444
1.6545,-2.138
1.6550,-1.833
1.6555,-1.528
1.6560,-2.138
1.6565,-2.444
1.6570,-1.833
1.6575,-0.9177
1.6580,-0.6125
1.6585,-0.6125
1.6590,-0.6125
1.6595,-0.9177
1.6600,-1.223
1.6605,-1.223
1.6610,-0.002135
1.6615,0.6083
1.6620,0.3031
1.6625,-0.002135
1.6630,0.3031
1.6635,1.219
1.6640,0.3031
1.6645,-0.9177
1.6650,-1.223
1.6655,-0.3073
1.6660,-0.002135
1.6665,-0.9177
1.6670,-1.528
1.6675,-0.6125
1.6680,-0.002135
1.6685,-0.3073
1.6690,-1.223
1.6695,-1.223
1.6700,-0.9177
1.6705,-1.223
1.6710,-1.528
1.6715,-0.9177
1.6720,-0.002135
1.6725,0.6083
1.6730,0.6083
1.6735,-0.002135
1.6740,-0.3073
1.6745,-0.3073
1.6750,-0.002135
1.6755,-0.3073
1.6760,-0.6125
1.6765,-0.9177
1.6770,-0.3073
1.6775,-0.002135
1.6780,-0.002135
1.6785,-0.002135
1.6790,0.6083
1.6795,1.219
1.6800,0.9134
1.6805,-0.002135
1.6810,-0.002135
1.6815,-0.002135
1.6820,-0.002135
1.6825,-0.9177
1.6830,-1.223
1.6835,-0.3073
1.6840,0.6083
1.6845,0.9134
1.6850,-0.002135
1.6855,-0.002135
1.6860,-0.002135
1.6865,-0.002135
1.6870,-0.002135
1.6875,0.3031
1.6880,0.3031
1.6885,-0.002135
1.6890,-0.3073
1.6895,-0.3073
1.6900,-0.3073
1.6905,-0.3073
1.6910,-0.002135
1.6915,0.6083
1.6920,1.829
1.6925,1.524
1.6930,0.6083
1.6935,-0.002135
1.6940,-0.002135
1.6945,0.3031
1.6950,0.6083
1.6955,1.219
1.6960,1.829
1.6965,2.134
1.6970,1.524
1.6975,0.9134
1.6980,0.6083
1.6985,0.9134
1.6990,0.6083
1.6995,-0.002135
1.7000,-0.6125
1.7005,0.3031
1.7010,1.829
1.7015,2.134
1.7020,1.219
1.7025,0.6083
1.7030,1.829
1.7035,3.05
1.7040,2.134
1.7045,-0.3073
1.7050,-2.444
1.7055,-2.444
1.7060,-1.528
1.7065,-0.3073
1.7070,0.6083
1.7075,0.9134
1.7080,-0.002135
1.7085,-0.9177
1.7090,-0.6125
1.7095,-0.002135
1.7100,0.3031
1.7105,-0.6125
1.7110,-1.528
1.7115,-1.223
1.7120,-0.002135
1.7125,0.6083
1.7130,0.9134
1.7135,1.524
1.7140,1.829
1.7145,1.524
1.7150,0.3031
1.7155,-0.002135
1.7160,0.3031
1.7165,-0.002135
1.7170,-0.9177
1.7175,-1.223
1.7180,-0.002135
1.7185,1.219
1.7190,1.524
1.7195,0.9134
1.7200,0.6083
1.7205,-0.002135
1.7210,-0.6125
1.7215,-0.6125
1.7220,0.6083
1.7225,1.524
1.7230,0.6083
1.7235,-0.6125
1.7240,-0.6125
1.7245,0.3031
1.7250,0.6083
1.7255,0.6083
1.7260,1.524
1.7265,3.355
1.7270,3.355
1.7275,2.439
1.7280,1.829
1.7285,2.439
1.7290,3.355
1.7295,3.965
1.7300,4.271
1.7305,3.965
1.7310,2.134
1.7315,-0.3073
1.7320,-1.833
1.7325,-2.138
1.7330,-2.444
1.7335,-2.444
1.7340,-1.223
1.7345,0.3031
1.7350,-0.002135
1.7355,-2.444
1.7360,-4.885
1.7365,-5.801
1.7370,-6.716
1.7375,-7.022
1.7380,-5.801
1.7385,-2.749
1.7390,-1.528
1.7395,-3.359
1.7400,-5.801
1.7405,-5.19
1.7410,-2.444
1.7415,-0.3073
1.7420,-0.3073
1.7425,-0.9177
1.7430,-0.6125
1.7435,0.3031
1.7440,1.829
1.7445,2.439
1.7450,2.134
1.7455,1.524
1.7460,1.219
1.7465,0.9134
1.7470,-0.002135
1.7475,-2.444
1.7480,-4.275
1.7485,-3.664
1.7490,-1.223
1.7495,0.6083
1.7500,1.219
1.7505,1.219
1.7510,0.6083
1.7515,-0.002135
1.7520,-0.3073
1.7525,-0.002135
1.7530,1.524
1.7535,4.576
1.7540,8.238
1.7545,12.51
1.7550,16.17
1.7555,17.39
1.7560,16.17
1.7565,15.26
1.7570,16.17
1.7575,16.78
1.7580,15.26
1.7585,11.6
1.7590,6.407
1.7595,-0.002135
1.7600,-7.327
1.7605,-9.768
1.7610,-5.801
1.7615,-3.054
1.7620,-8.242
1.7625,-17.09
1.7630,-19.23
1.7635,-13.43
1.7640,-9.158
1.7645,-13.74
1.7650,-21.06
1.7655,-21.67
1.7660,-15.57
1.7665,-9.158
1.7670,-7.022
1.7675,-6.106
1.7680,-4.275
1.7685,-1.833
1.7690,-0.9177
1.7695,-0.6125
1.7700,0.6083
1.7705,2.134
1.7710,2.439
1.7715,0.9134
1.7720,-0.9177
1.7725,-2.749
1.7730,-3.97
1.7735,-4.58
1.7740,-4.58
1.7745,-3.359
1.7750,-0.3073
1.7755,3.355
1.7760,5.186
1.7765,3.05
1.7770,-1.833
1.7775,-6.411
1.7780,-6.411
1.7785,-3.359
1.7790,-0.3073
1.7795,0.9134
1.7800,3.355
1.7805,7.933
1.7810,12.21
1.7815,14.34
1.7820,15.26
1.7825,17.09
1.7830,17.7
1.7835,13.73
1.7840,6.102
1.7845,1.219
1.7850,3.66
1.7855,10.37
1.7860,14.65
1.7865,12.51
1.7870,5.491
1.7875,-1.528
1.7880,-6.411
1.7885,-8.548
1.7890,-10.68
1.7895,-16.79
1.7900,-24.42
1.7905,-26.25
1.7910,-18.01
1.7915,-6.106
1.7920,-1.528
1.7925,-7.022
1.7930,-13.13
1.7935,-11.6
1.7940,-5.19
1.7945,-1.528
1.7950,-2.444
1.7955,-5.19
1.7960,-7.022
1.7965,-8.242
1.7970,-6.411
1.7975,0.6083
1.7980,11.9
1.7985,20.75
1.7990,22.58
1.7995,17.7
1.8000,8.543
1.8005,-2.138
1.8010,-11.29
1.8015,-15.87
1.8020,-14.65
1.8025,-9.768
1.8030,-3.97
1.8035,-0.002135
1.8040,2.745
1.8045,5.186
1.8050,9.154
1.8055,13.43
1.8060,15.26
1.8065,13.73
1.8070,11.9
1.8075,11.29
1.8080,10.07
1.8085,7.323
1.8090,3.965
1.8095,-0.6125
1.8100,-7.937
1.8105,-12.82
1.8110,-9.768
1.8115,-0.3073
1.8120,3.355
1.8125,-4.885
1.8130,-18.01
1.8135,-23.5
1.8140,-19.53
1.8145,-14.35
1.8150,-12.21
1.8155,-9.768
1.8160,-4.885
1.8165,-1.833
1.8170,-3.054
1.8175,-4.885
1.8180,-3.97
1.8185,-1.528
1.8190,-1.223
1.8195,-3.054
1.8200,-4.275
1.8205,-4.275
1.8210,-3.359
1.8215,-2.749
1.8220,-2.749
1.8225,-3.359
1.8230,-4.275
1.8235,-3.359
1.8240,-0.3073
1.8245,3.66
1.8250,8.238
1.8255,11.29
1.8260,11.29
1.8265,8.238
1.8270,5.491
1.8275,6.712
1.8280,10.98
1.8285,14.34
1.8290,13.73
1.8295,11.6
1.8300,12.51
1.8305,15.56
1.8310,16.78
1.8315,14.04
1.8320,7.933
1.8325,1.524
1.8330,-3.359
1.8335,-6.411
1.8340,-6.716
1.8345,-7.022
1.8350,-10.07
1.8355,-15.87
1.8360,-19.53
1.8365,-18.01
1.8370,-14.96
1.8375,-14.96
1.8380,-16.79
1.8385,-14.35
1.8390,-5.19
1.8395,4.271
1.8400,7.933
1.8405,6.102
1.8410,6.102
1.8415,12.82
1.8420,24.72
1.8425,34.79
1.8430,37.54
1.8435,30.82
1.8440,15.56
1.8445,-6.716
1.8450,-32.66
1.8455,-52.8
1.8460,-57.07
1.8465,-44.87
1.8470,-27.77
1.8475,-18.31
1.8480,-19.23
1.8485,-27.47
1.8490,-39.98
1.8495,-52.8
1.8500,-57.38
1.8505,-48.83
1.8510,-33.57
1.8515,-18.92
1.8520,-0.6125
1.8525,27.77
1.8530,57.98
1.8535,69.89
1.8540,59.51
1.8545,46.69
1.8550,51.88
1.8555,74.77
1.8560,96.44
1.8565,95.52
1.8570,64.09
1.8575,11.9
1.8580,-36.02
1.8585,-60.13
1.8590,-61.04
1.8595,-50.66
1.8600,-36.63
1.8605,-23.2
1.8610,-20.14
1.8615,-32.35
1.8620,-46.7
1.8625,-43.64
1.8630,-21.98
1.8635,3.05
1.8640,24.11
1.8645,44.56
1.8650,63.48
1.8655,71.72
1.8660,70.5
1.8665,71.41
1.8670,82.1
1.8675,96.74
1.8680,109.6
1.8685,119.3
1.8690,123.3
1.8695,116.3
1.8700,101.9
1.8705,90.95
1.8710,82.4
1.8715,65.31
1.8720,34.18
1.8725,-0.002135
1.8730,-25.64
1.8735,-40.9
1.8740,-47
1.8745,-42.73
1.8750,-29.91
1.8755,-18.31
1.8760,-17.09
1.8765,-23.5
1.8770,-29.61
1.8775,-30.52
1.8780,-28.08
1.8785,-26.55
1.8790,-27.16
1.8795,-29
1.8800,-29.3
1.8805,-27.16
1.8810,-24.42
1.8815,-24.11
1.8820,-26.25
1.8825,-29.3
1.8830,-32.96
1.8835,-37.54
1.8840,-42.73
1.8845,-48.53
1.8850,-53.11
1.8855,-53.72
1.8860,-47.92
1.8865,-38.46
1.8870,-32.35
1.8875,-32.05
1.8880,-34.49
1.8885,-34.49
1.8890,-31.44
1.8895,-27.47
1.8900,-24.11
1.8905,-21.67
1.8910,-19.84
1.8915,-18.01
1.8920,-14.96
1.8925,-11.29
1.8930,-9.158
1.8935,-9.463
1.8940,-9.768
1.8945,-8.853
1.8950,-8.242
1.8955,-8.853
1.8960,-9.158
1.8965,-6.716
1.8970,-3.97
1.8975,-3.054
1.8980,-3.664
1.8985,-3.664
1.8990,-3.054
1.8995,-0.6125
1.9000,3.05
1.9005,8.238
1.9010,10.37
1.9015,9.459
1.9020,9.459
1.9025,11.9
1.9030,13.43
1.9035,11.29
1.9040,8.543
1.9045,9.459
1.9050,9.764
1.9055,2.745
1.9060,-8.548
1.9065,-15.26
1.9070,-15.26
1.9075,-16.18
1.9080,-22.59
1.9085,-28.08
1.9090,-25.33
1.9095,-16.18
1.9100,-9.463
1.9105,-8.853
1.9110,-11.6
1.9115,-13.13
1.9120,-12.21
1.9125,-9.158
1.9130,-4.58
1.9135,-0.6125
1.9140,0.9134
1.9145,1.524
1.9150,2.745
1.9155,4.881
1.9160,6.407
1.9165,7.323
1.9170,7.933
1.9175,8.238
1.9180,8.543
1.9185,8.543
1.9190,8.849
1.9195,8.543
1.9200,7.628
1.9205,7.017
1.9210,7.933
1.9215,8.543
1.9220,7.628
1.9225,6.712
1.9230,7.628
1.9235,9.764
1.9240,9.459
1.9245,7.323
1.9250,7.323
1.9255,10.68
1.9260,13.12
1.9265,10.07
1.9270,2.745
1.9275,-2.444
1.9280,-2.138
1.9285,2.745
1.9290,9.764
1.9295,13.12
1.9300,10.07
1.9305,2.745
1.9310,-1.528
1.9315,-0.3073
1.9320,2.745
1.9325,3.355
1.9330,1.524
1.9335,1.829
1.9340,4.881
1.9345,7.017
1.9350,6.712
1.9355,5.491
1.9360,5.186
1.9365,5.491
1.9370,5.797
1.9375,7.017
1.9380,8.543
1.9385,8.238
1.9390,6.102
1.9395,4.881
1.9400,6.102
1.9405,7.628
1.9410,8.543
1.9415,8.238
1.9420,6.102
1.9425,1.524
1.9430,-3.97
1.9435,-7.327
1.9440,-5.496
1.9445,-0.3073
1.9450,3.66
1.9455,4.576
1.9460,3.66
1.9465,2.745
1.9470,2.439
1.9475,3.05
1.9480,3.66
1.9485,3.66
1.9490,3.355
1.9495,3.355
1.9500,3.66
1.9505,3.66
1.9510,3.66
1.9515,3.965
1.9520,4.576
1.9525,5.186
1.9530,5.491
1.9535,5.186
1.9540,4.881
1.9545,5.797
1.9550,8.238
1.9555,11.29
1.9560,13.73
1.9565,16.48
1.9570,18
1.9575,17.39
1.9580,14.34
1.9585,12.51
1.9590,14.34
1.9595,16.48
1.9600,13.12
1.9605,3.05
1.9610,-7.632
1.9615,-14.96
1.9620,-18.62
1.9625,-18.62
1.9630,-13.74
1.9635,-3.664
1.9640,4.271
1.9645,2.134
1.9650,-8.548
1.9655,-16.79
1.9660,-13.74
1.9665,-4.58
1.9670,-1.528
1.9675,-7.632
1.9680,-15.57
1.9685,-17.4
1.9690,-14.96
1.9695,-13.43
1.9700,-12.21
1.9705,-7.632
1.9710,-0.9177
1.9715,3.355
1.9720,4.881
1.9725,5.491
1.9730,5.797
1.9735,3.66
1.9740,0.3031
1.9745,-1.833
1.9750,-4.885
1.9755,-13.43
1.9760,-23.5
1.9765,-23.81
1.9770,-6.411
1.9775,20.14
1.9780,41.81
1.9785,50.66
1.9790,49.13
1.9795,38.76
1.9800,14.34
1.9805,-24.42
1.9810,-64.7
1.9815,-84.85
1.9820,-76.91
1.9825,-55.85
1.9830,-42.42
1.9835,-40.59
1.9840,-40.9
1.9845,-35.1
1.9850,-24.72
1.9855,-15.26
1.9860,-9.158
1.9865,-6.716
1.9870,-6.106
1.9875,-1.223
1.9880,8.238
1.9885,11.9
1.9890,-1.528
1.9895,-29
1.9900,-56.16
1.9905,-77.22
1.9910,-96.75
1.9915,-114.5
1.9920,-124.2
1.9925,-127
1.9930,-131.2
1.9935,-134
1.9940,-120.9
1.9945,-87.59
1.9950,-52.8
1.9955,-30.83
1.9960,-13.74
1.9965,14.65
1.9970,53.1
1.9975,84.23
1.9980,101.3
1.9985,115.4
1.9990,137
1.9995,165.7
2.0000,193.8
2.0005,215.5
2.0010,227.1
2.0015,224.6
2.0020,207.2
2.0025,183.1
2.0030,163.6
2.0035,152.9
2.0040,142.5
2.0045,126
2.0050,109
2.0055,102.2
2.0060,102.8
2.0065,93.69
2.0070,64.39
2.0075,25.33
2.0080,-3.97
2.0085,-17.09
2.0090,-18.62
2.0095,-14.35
2.0100,-7.937
2.0105,-5.801
2.0110,-13.43
2.0115,-27.16
2.0120,-36.63
2.0125,-37.85
2.0130,-36.63
2.0135,-37.85
2.0140,-39.68
2.0145,-38.76
2.0150,-36.63
2.0155,-36.02
2.0160,-36.63
2.0165,-37.24
2.0170,-36.63
2.0175,-36.02
2.0180,-36.32
2.0185,-36.93
2.0190,-37.85
2.0195,-37.85
2.0200,-38.15
2.0205,-39.68
2.0210,-42.12
2.0215,-42.42
2.0220,-39.98
2.0225,-37.85
2.0230,-38.15
2.0235,-39.37
2.0240,-38.46
2.0245,-36.93
2.0250,-36.93
2.0255,-37.54
2.0260,-36.93
2.0265,-35.1
2.0270,-35.1
2.0275,-36.32
2.0280,-36.93
2.0285,-35.1
2.0290,-33.27
2.0295,-32.66
2.0300,-32.35
2.0305,-31.13
2.0310,-29.91
2.0315,-29
2.0320,-28.39
2.0325,-27.77
2.0330,-27.16
2.0335,-25.64
2.0340,-23.81
2.0345,-22.89
2.0350,-23.5
2.0355,-23.2
2.0360,-20.45
2.0365,-17.4
2.0370,-17.7
2.0375,-19.23
2.0380,-18.62
2.0385,-15.57
2.0390,-13.13
2.0395,-13.43
2.0400,-13.43
2.0405,-11.29
2.0410,-9.158
2.0415,-8.853
2.0420,-8.853
2.0425,-7.632
2.0430,-6.411
2.0435,-6.411
2.0440,-7.327
2.0445,-6.716
2.0450,-4.58
2.0455,-3.359
2.0460,-3.054
2.0465,-3.664
2.0470,-3.97
2.0475,-3.664
2.0480,-3.054
2.0485,-2.138
2.0490,-0.9177
2.0495,-0.3073
2.0500,0.3031
2.0505,1.219
2.0510,1.524
2.0515,1.524
2.0520,1.829
2.0525,3.66
2.0530,5.797
2.0535,7.323
2.0540,7.628
2.0545,8.238
2.0550,8.849
2.0555,8.543
2.0560,6.407
2.0565,3.965
2.0570,2.439
2.0575,2.745
2.0580,4.271
2.0585,6.712
2.0590,7.933
2.0595,8.543
2.0600,9.154
2.0605,10.07
2.0610,10.37
2.0615,9.459
2.0620,8.238
2.0625,8.238
2.0630,9.154
2.0635,9.764
2.0640,10.98
2.0645,13.43
2.0650,17.7
2.0655,20.75
2.0660,20.45
2.0665,16.48
2.0670,9.459
2.0675,1.524
2.0680,-3.664
2.0685,-3.054
2.0690,3.66
2.0695,12.21
2.0700,17.39
2.0705,17.09
2.0710,11.9
2.0715,4.271
2.0720,-1.223
2.0725,-0.9177
2.0730,3.965
2.0735,7.628
2.0740,7.628
2.0745,6.712
2.0750,9.459
2.0755,13.43
2.0760,14.65
2.0765,12.51
2.0770,9.459
2.0775,7.933
2.0780,10.07
2.0785,16.48
2.0790,21.67
2.0795,16.17
2.0800,-2.749
2.0805,-25.33
2.0810,-36.93
2.0815,-33.57
2.0820,-22.28
2.0825,-10.38
2.0830,-0.3073
2.0835,9.459
2.0840,17.39
2.0845,22.58
2.0850,27.77
2.0855,36.93
2.0860,48.83
2.0865,56.15
2.0870,53.71
2.0875,45.47
2.0880,36.62
2.0885,26.85
2.0890,12.82
2.0895,-1.833
2.0900,-10.99
2.0905,-14.96
2.0910,-19.23
2.0915,-23.5
2.0920,-21.67
2.0925,-14.04
2.0930,-7.327
2.0935,-2.749
2.0940,4.881
2.0945,13.43
2.0950,13.43
2.0955,7.323
2.0960,12.51
2.0965,32.04
2.0970,46.08
2.0975,39.06
2.0980,20.45
2.0985,6.102
2.0990,-5.496
2.0995,-20.76
2.1000,-30.22
2.1005,-25.94
2.1010,-21.67
2.1015,-36.32
2.1020,-58.6
2.1025,-57.99
2.1030,-27.47
2.1035,7.323
2.1040,25.33
2.1045,31.43
2.1050,38.76
2.1055,45.47
2.1060,43.03
2.1065,34.79
2.1070,28.69
2.1075,23.19
2.1080,6.407
2.1085,-23.81
2.1090,-54.02
2.1095,-67.14
2.1100,-61.35
2.1105,-48.83
2.1110,-40.59
2.1115,-35.1
2.1120,-25.33
2.1125,-14.04
2.1130,-10.07
2.1135,-15.87
2.1140,-21.06
2.1145,-16.18
2.1150,-3.664
2.1155,6.712
2.1160,11.29
2.1165,10.68
2.1170,7.628
2.1175,3.965
2.1180,0.3031
2.1185,-1.833
2.1190,-2.749
2.1195,-2.749
2.1200,-1.223
2.1205,0.6083
2.1210,1.829
2.1215,2.439
2.1220,4.271
2.1225,7.933
2.1230,10.37
2.1235,10.68
2.1240,11.6
2.1245,14.95
2.1250,18.92
2.1255,20.14
2.1260,18
2.1265,13.73
2.1270,9.154
2.1275,5.491
2.1280,4.881
2.1285,6.407
2.1290,7.933
2.1295,7.933
2.1300,6.407
2.1305,4.271
2.1310,0.9134
2.1315,-4.275
2.1320,-10.68
2.1325,-16.18
2.1330,-17.4
2.1335,-10.99
2.1340,1.524
2.1345,12.21
2.1350,14.34
2.1355,12.51
2.1360,16.48
2.1365,26.85
2.1370,34.18
2.1375,31.74
2.1380,22.28
2.1385,9.459
2.1390,-5.496
2.1395,-19.23
2.1400,-23.2
2.1405,-16.18
2.1410,-5.19
2.1415,0.3031
2.1420,-0.002135
2.1425,-4.275
2.1430,-9.463
2.1435,-9.768
2.1440,-0.6125
2.1445,11.9
2.1450,14.95
2.1455,4.576
2.1460,-5.801
2.1465,-4.275
2.1470,6.407
2.1475,14.04
2.1480,13.12
2.1485,8.238
2.1490,3.05
2.1495,-2.138
2.1500,-7.022
2.1505,-10.38
2.1510,-12.21
2.1515,-12.52
2.1520,-7.937
2.1525,0.9134
2.1530,9.459
2.1535,11.6
2.1540,8.238
2.1545,5.186
2.1550,4.271
2.1555,3.355
2.1560,1.829
2.1565,1.219
2.1570,2.134
2.1575,3.05
2.1580,0.9134
2.1585,-3.97
2.1590,-10.07
2.1595,-13.43
2.1600,-11.29
2.1605,-7.022
2.1610,-4.885
2.1615,-5.801
2.1620,-7.022
2.1625,-7.022
2.1630,-7.022
2.1635,-7.937
2.1640,-7.937
2.1645,-6.716
2.1650,-5.801
2.1655,-6.411
2.1660,-6.411
2.1665,-4.58
2.1670,-2.138
2.1675,-1.528
2.1680,-1.223
2.1685,-0.6125
2.1690,-0.002135
2.1695,-0.002135
2.1700,-0.9177
2.1705,-1.223
2.1710,-0.9177
2.1715,-0.3073
2.1720,-0.002135
2.1725,-0.9177
2.1730,-3.97
2.1735,-8.548
2.1740,-10.99
2.1745,-9.463
2.1750,-5.496
2.1755,-3.359
2.1760,-4.275
2.1765,-6.106
2.1770,-5.496
2.1775,-3.359
2.1780,-1.223
2.1785,-1.223
2.1790,-2.444
2.1795,-3.054
2.1800,-3.054
2.1805,-2.749
2.1810,-3.054
2.1815,-3.664
2.1820,-3.664
2.1825,-2.444
2.1830,-0.6125
2.1835,0.3031
2.1840,0.9134
2.1845,0.3031
2.1850,-0.6125
2.1855,-1.223
2.1860,-0.9177
2.1865,-0.3073
2.1870,-0.6125
2.1875,-1.833
2.1880,-2.444
2.1885,-2.138
2.1890,-1.528
2.1895,-1.223
2.1900,-1.528
2.1905,-1.528
2.1910,-1.223
2.1915,-0.9177
2.1920,-0.6125
2.1925,-0.3073
2.1930,-0.3073
2.1935,-0.9177
2.1940,-1.833
2.1945,-2.444
2.1950,-1.833
2.1955,-1.833
2.1960,-2.444
2.1965,-3.664
2.1970,-3.054
2.1975,-0.9177
2.1980,2.439
2.1985,5.797
2.1990,8.238
2.1995,9.764
2.2000,9.764
2.2005,8.543
2.2010,6.712
2.2015,6.102
2.2020,6.712
2.2025,7.017
2.2030,5.797
2.2035,3.66
2.2040,0.6083
2.2045,-1.833
2.2050,-3.054
2.2055,-1.833
2.2060,1.219
2.2065,4.271
2.2070,5.797
2.2075,7.323
2.2080,10.68
2.2085,14.65
2.2090,15.56
2.2095,10.07
2.2100,-1.223
2.2105,-13.74
2.2110,-22.59
2.2115,-27.16
2.2120,-29.61
2.2125,-29.61
2.2130,-27.16
2.2135,-23.81
2.2140,-21.06
2.2145,-16.48
2.2150,-6.411
2.2155,7.323
2.2160,17.09
2.2165,17.7
2.2170,13.73
2.2175,10.07
2.2180,6.102
2.2185,0.3031
2.2190,-2.749
2.2195,0.6083
2.2200,8.849
2.2205,14.34
2.2210,13.12
2.2215,7.017
2.2220,0.3031
2.2225,-4.275
2.2230,-2.444
2.2235,9.154
2.2240,24.72
2.2245,30.21
2.2250,17.7
2.2255,-2.749
2.2260,-13.74
2.2265,-12.82
2.2270,-15.87
2.2275,-32.66
2.2280,-52.19
2.2285,-54.94
2.2290,-39.98
2.2295,-21.98
2.2300,-9.463
2.2305,0.9134
2.2310,12.21
2.2315,22.58
2.2320,32.65
2.2325,44.86
2.2330,52.8
2.2335,47.91
2.2340,32.96
2.2345,20.14
2.2350,10.98
2.2355,-2.444
2.2360,-21.06
2.2365,-37.24
2.2370,-50.36
2.2375,-61.35
2.2380,-60.43
2.2385,-42.73
2.2390,-26.86
2.2395,-27.16
2.2400,-10.07
2.2405,78.74
2.2410,233.5
2.2415,369
2.2420,409.6
2.2425,357.4
2.2430,258.2
2.2435,138.6
2.2440,9.459
2.2445,-103.5
2.2450,-177.6
2.2455,-222.2
2.2460,-258.5
2.2465,-284.7
2.2470,-284.4
2.2475,-259.1
2.2480,-223.1
2.2485,-176.4
2.2490,-113.5
2.2495,-44.87
2.2500,14.95
2.2505,68.97
2.2510,121.8
2.2515,154.7
2.2520,145.3
2.2525,102.8
2.2530,52.19
2.2535,-1.528
2.2540,-69.59
2.2545,-139.2
2.2550,-180.1
2.2555,-184.3
2.2560,-172.1
2.2565,-153.2
2.2570,-114.8
2.2575,-54.02
2.2580,2.745
2.2585,32.35
2.2590,38.76
2.2595,38.15
2.2600,36.93
2.2605,32.96
2.2610,29.3
2.2615,28.69
2.2620,26.85
2.2625,20.75
2.2630,14.34
2.2635,12.82
2.2640,13.43
2.2645,12.21
2.2650,10.68
2.2655,12.51
2.2660,14.65
2.2665,13.73
2.2670,11.9
2.2675,11.6
2.2680,11.6
2.2685,12.21
2.2690,17.7
2.2695,29.91
2.2700,40.89
2.2705,42.42
2.2710,36.01
2.2715,29.6
2.2720,26.55
2.2725,24.11
2.2730,21.06
2.2735,19.53
2.2740,20.45
2.2745,21.67
2.2750,21.36
2.2755,21.06
2.2760,21.67
2.2765,22.28
2.2770,22.28
2.2775,22.28
2.2780,22.58
2.2785,22.89
2.2790,22.89
2.2795,23.19
2.2800,24.41
2.2805,25.02
2.2810,24.72
2.2815,24.72
2.2820,24.41
2.2825,22.58
2.2830,17.7
2.2835,10.98
2.2840,4.271
2.2845,-2.749
2.2850,-9.158
2.2855,-12.52
2.2860,-12.21
2.2865,-10.38
2.2870,-8.548
2.2875,-3.359
2.2880,7.323
2.2885,21.06
2.2890,30.52
2.2895,32.65
2.2900,28.99
2.2905,22.89
2.2910,16.17
2.2915,9.459
2.2920,3.66
2.2925,-1.223
2.2930,-6.106
2.2935,-10.68
2.2940,-12.21
2.2945,-9.768
2.2950,-5.19
2.2955,-1.833
2.2960,0.3031
2.2965,2.439
2.2970,4.271
2.2975,6.102
2.2980,7.017
2.2985,6.712
2.2990,4.271
2.2995,0.9134
2.3000,-0.6125
2.3005,-0.3073
2.3010,0.3031
2.3015,-0.002135
2.3020,-0.3073
2.3025,-0.002135
2.3030,1.219
2.3035,2.745
2.3040,3.66
2.3045,3.66
2.3050,3.355
2.3055,3.355
2.3060,3.965
2.3065,5.491
2.3070,7.323
2.3075,8.543
2.3080,8.238
2.3085,5.491
2.3090,0.9134
2.3095,-3.97
2.3100,-8.242
2.3105,-10.68
2.3110,-10.68
2.3115,-9.158
2.3120,-6.411
2.3125,-5.801
2.3130,-9.463
2.3135,-17.7
2.3140,-25.94
2.3145,-27.16
2.3150,-18.31
2.3155,-4.275
2.3160,4.881
2.3165,5.491
2.3170,-0.002135
2.3175,-4.275
2.3180,-6.106
2.3185,-6.716
2.3190,-7.022
2.3195,-7.022
2.3200,-5.801
2.3205,-3.97
2.3210,-2.749
2.3215,-0.6125
2.3220,2.745
2.3225,7.323
2.3230,9.154
2.3235,7.323
2.3240,2.745
2.3245,-0.6125
2.3250,-2.444
2.3255,-2.444
2.3260,-1.833
2.3265,-1.833
2.3270,-2.444
2.3275,-3.97
2.3280,-4.58
2.3285,-5.496
2.3290,-7.937
2.3295,-12.21
2.3300,-14.35
2.3305,-11.29
2.3310,-5.496
2.3315,-1.833
2.3320,-0.3073
2.3325,0.9134
2.3330,0.6083
2.3335,-5.801
2.3340,-17.4
2.3345,-23.81
2.3350,-19.23
2.3355,-10.68
2.3360,-7.327
2.3365,-9.158
2.3370,-8.242
2.3375,-0.6125
2.3380,9.154
2.3385,16.78
2.3390,22.28
2.3395,25.94
2.3400,25.94
2.3405,22.28
2.3410,18.31
2.3415,16.17
2.3420,14.65
2.3425,12.51
2.3430,10.68
2.3435,10.07
2.3440,7.933
2.3445,0.9134
2.3450,-7.937
2.3455,-10.68
2.3460,-3.664
2.3465,4.576
2.3470,3.66
2.3475,-9.158
2.3480,-25.64
2.3485,-34.79
2.3490,-33.27
2.3495,-26.55
2.3500,-21.06
2.3505,-18.62
2.3510,-17.4
2.3515,-15.57
2.3520,-14.04
2.3525,-14.35
2.3530,-15.26
2.3535,-14.96
2.3540,-12.52
2.3545,-10.07
2.3550,-10.38
2.3555,-11.6
2.3560,-11.6
2.3565,-10.68
2.3570,-8.853
2.3575,-7.022
2.3580,-5.19
2.3585,-5.19
2.3590,-7.022
2.3595,-7.937
2.3600,-6.716
2.3605,-5.496
2.3610,-5.801
2.3615,-5.801
2.3620,-4.275
2.3625,-2.749
2.3630,-3.359
2.3635,-4.58
2.3640,-4.275
2.3645,-2.749
2.3650,-2.749
2.3655,-3.664
2.3660,-3.664
2.3665,-2.444
2.3670,-2.138
2.3675,-1.833
2.3680,-0.6125
2.3685,0.9134
2.3690,0.6083
2.3695,-0.9177
2.3700,-0.9177
2.3705,0.6083
2.3710,2.134
2.3715,1.219
2.3720,-0.002135
2.3725,-0.002135
2.3730,0.3031
2.3735,-0.002135
2.3740,0.3031
2.3745,1.219
2.3750,1.829
2.3755,1.829
2.3760,1.829
2.3765,3.05
2.3770,3.66
2.3775,2.745
2.3780,1.524
2.3785,1.829
2.3790,2.439
2.3795,2.439
2.3800,2.134
2.3805,2.439
2.3810,3.05
2.3815,2.745
2.3820,1.829
2.3825,1.524
2.3830,2.745
2.3835,3.965
2.3840,3.965
2.3845,3.05
2.3850,3.05
2.3855,3.965
2.3860,4.271
2.3865,3.355
2.3870,2.439
2.3875,2.745
2.3880,3.965
2.3885,3.965
2.3890,3.355
2.3895,2.745
2.3900,1.829
2.3905,0.3031
2.3910,-1.528
2.3915,-2.444
2.3920,-1.223
2.3925,-0.002135
2.3930,1.219
2.3935,2.439
2.3940,3.965
2.3945,5.491
2.3950,6.102
2.3955,4.881
2.3960,2.134
2.3965,-0.002135
2.3970,2.439
2.3975,10.37
2.3980,18.61
2.3985,23.5
2.3990,24.72
2.3995,25.94
2.4000,27.16
2.4005,25.02
2.4010,19.53
2.4015,13.43
2.4020,8.543
2.4025,3.66
2.4030,-1.223
2.4035,-4.58
2.4040,-4.885
2.4045,-5.496
2.4050,-8.853
2.4055,-14.04
2.4060,-17.4
2.4065,-17.7
2.4070,-15.57
2.4075,-12.21
2.4080,-8.548
2.4085,-5.19
2.4090,-3.054
2.4095,-1.528
2.4100,-2.138
2.4105,-5.19
2.4110,-9.463
2.4115,-12.82
2.4120,-13.74
2.4125,-11.6
2.4130,-7.937
2.4135,-3.664
2.4140,-1.223
2.4145,-1.223
2.4150,-1.833
2.4155,-0.9177
2.4160,0.6083
2.4165,1.219
2.4170,-0.002135
2.4175,-0.3073
2.4180,0.3031
2.4185,1.524
2.4190,1.829
2.4195,1.829
2.4200,0.3031
2.4205,-2.749
2.4210,-6.106
2.4215,-8.548
2.4220,-10.38
2.4225,-13.13
2.4230,-17.09
2.4235,-20.45
2.4240,-24.72
2.4245,-30.83
2.4250,-36.32
2.4255,-34.49
2.4260,-22.28
2.4265,-4.58
2.4270,10.68
2.4275,21.67
2.4280,31.13
2.4285,41.2
2.4290,49.44
2.4295,51.27
2.4300,46.69
2.4305,40.89
2.4310,36.93
2.4315,34.79
2.4320,31.74
2.4325,27.47
2.4330,22.89
2.4335,18
2.4340,11.6
2.4345,4.881
2.4350,1.829
2.4355,5.186
2.4360,11.9
2.4365,15.56
2.4370,12.21
2.4375,5.797
2.4380,0.6083
2.4385,-0.3073
2.4390,-0.002135
2.4395,-0.3073
2.4400,-0.9177
2.4405,-1.833
2.4410,-2.138
2.4415,-1.833
2.4420,-1.528
2.4425,-1.528
2.4430,-2.138
2.4435,-3.664
2.4440,-4.275
2.4445,-3.664
2.4450,-3.054
2.4455,-3.359
2.4460,-3.97
2.4465,-3.664
2.4470,-3.97
2.4475,-5.19
2.4480,-5.801
2.4485,-4.885
2.4490,-3.664
2.4495,-3.054
2.4500,-3.054
2.4505,-2.444
2.4510,-3.054
2.4515,-5.19
2.4520,-7.022
2.4525,-6.411
2.4530,-5.19
2.4535,-6.106
2.4540,-8.242
2.4545,-8.853
2.4550,-7.632
2.4555,-6.716
2.4560,-6.411
2.4565,-5.496
2.4570,-4.275
2.4575,-4.885
2.4580,-5.496
2.4585,-3.359
2.4590,1.219
2.4595,5.186
2.4600,5.491
2.4605,3.965
2.4610,2.439
2.4615,0.9134
2.4620,-0.9177
2.4625,-3.359
2.4630,-5.496
2.4635,-7.937
2.4640,-9.768
2.4645,-9.768
2.4650,-8.242
2.4655,-7.937
2.4660,-9.158
2.4665,-10.07
2.4670,-9.158
2.4675,-7.632
2.4680,-6.716
2.4685,-6.106
2.4690,-4.885
2.4695,-4.58
2.4700,-4.885
2.4705,-5.19
2.4710,-5.19
2.4715,-4.885
2.4720,-3.97
2.4725,-2.138
2.4730,-0.6125
2.4735,-0.002135
2.4740,-0.002135
2.4745,0.6083
2.4750,1.524
2.4755,1.219
2.4760,-0.002135
2.4765,-0.9177
2.4770,-0.002135
2.4775,1.219
2.4780,1.524
2.4785,1.524
2.4790,1.524
2.4795,0.6083
2.4800,-0.9177
2.4805,-2.138
2.4810,-1.833
2.4815,-0.9177
2.4820,-0.002135
2.4825,1.524
2.4830,2.745
2.4835,2.745
2.4840,2.745
2.4845,3.66
2.4850,6.102
2.4855,7.628
2.4860,6.712
2.4865,4.271
2.4870,2.745
2.4875,2.745
2.4880,3.05
2.4885,3.05
2.4890,3.355
2.4895,3.355
2.4900,3.355
2.4905,4.271
2.4910,6.712
2.4915,10.07
2.4920,12.82
2.4925,14.65
2.4930,17.39
2.4935,19.23
2.4940,17.39
2.4945,11.29
2.4950,4.271
2.4955,-0.002135
2.4960,-2.138
2.4965,-4.275
2.4970,-6.411
2.4975,-7.937
2.4980,-8.242
2.4985,-8.548
2.4990,-9.158
2.4995,-9.158
2.5000,-8.242
2.5005,-7.022
2.5010,-5.801
2.5015,-5.801
2.5020,-7.022
2.5025,-9.158
2.5030,-10.38
2.5035,-9.768
2.5040,-8.853
2.5045,-8.242
2.5050,-7.937
2.5055,-7.937
2.5060,-8.853
2.5065,-10.99
2.5070,-12.52
2.5075,-12.52
2.5080,-10.99
2.5085,-9.158
2.5090,-7.022
2.5095,-3.97
2.5100,-0.9177
2.5105,0.9134
2.5110,3.05
2.5115,4.881
2.5120,6.712
2.5125,7.933
2.5130,10.37
2.5135,14.04
2.5140,17.39
2.5145,18.31
2.5150,17.39
2.5155,18
2.5160,19.53
2.5165,20.14
2.5170,19.53
2.5175,19.53
2.5180,21.06
2.5185,21.67
2.5190,18.92
2.5195,15.26
2.5200,13.43
2.5205,13.73
2.5210,14.04
2.5215,11.9
2.5220,9.459
2.5225,7.933
2.5230,7.323
2.5235,6.407
2.5240,4.881
2.5245,3.965
2.5250,3.965
2.5255,3.965
2.5260,2.745
2.5265,-0.002135
2.5270,-2.138
2.5275,-3.359
2.5280,-3.664
2.5285,-4.58
2.5290,-6.106
2.5295,-7.022
2.5300,-7.022
2.5305,-6.716
2.5310,-7.022
2.5315,-7.327
2.5320,-7.632
2.5325,-7.937
2.5330,-8.853
2.5335,-9.158
2.5340,-7.937
2.5345,-6.716
2.5350,-7.632
2.5355,-9.463
2.5360,-9.768
2.5365,-8.853
2.5370,-8.853
2.5375,-10.99
2.5380,-13.13
2.5385,-12.82
2.5390,-11.6
2.5395,-10.99
2.5400,-9.768
2.5405,-6.716
2.5410,-3.359
2.5415,-2.444
2.5420,-1.528
2.5425,2.134
2.5430,7.323
2.5435,8.849
2.5440,5.491
2.5445,1.524
2.5450,-0.002135
2.5455,-1.528
2.5460,-3.664
2.5465,-4.885
2.5470,-3.97
2.5475,-3.054
2.5480,-3.97
2.5485,-5.801
2.5490,-5.801
2.5495,-4.885
2.5500,-4.275
2.5505,-3.97
2.5510,-3.054
2.5515,-3.359
2.5520,-5.19
2.5525,-7.632
2.5530,-8.242
2.5535,-7.937
2.5540,-7.632
2.5545,-7.022
2.5550,-4.275
2.5555,-1.223
2.5560,-0.3073
2.5565,-1.833
2.5570,-2.138
2.5575,-0.3073
2.5580,2.439
2.5585,5.186
2.5590,7.017
2.5595,8.849
2.5600,10.07
2.5605,11.6
2.5610,13.73
2.5615,15.87
2.5620,16.78
2.5625,16.48
2.5630,15.26
2.5635,13.12
2.5640,8.849
2.5645,3.05
2.5650,-1.528
2.5655,-4.885
2.5660,-8.853
2.5665,-12.52
2.5670,-13.74
2.5675,-12.21
2.5680,-11.6
2.5685,-14.65
2.5690,-20.14
2.5695,-23.81
2.5700,-24.72
2.5705,-25.64
2.5710,-26.86
2.5715,-26.55
2.5720,-23.5
2.5725,-19.84
2.5730,-17.09
2.5735,-14.96
2.5740,-12.82
2.5745,-10.68
2.5750,-8.242
2.5755,-4.885
2.5760,-1.223
2.5765,2.439
2.5770,5.797
2.5775,10.07
2.5780,15.87
2.5785,22.89
2.5790,28.69
2.5795,30.82
2.5800,27.77
2.5805,21.36
2.5810,14.65
2.5815,8.849
2.5820,2.745
2.5825,-4.885
2.5830,-12.82
2.5835,-18.92
2.5840,-23.81
2.5845,-29
2.5850,-33.27
2.5855,-35.1
2.5860,-34.49
2.5865,-34.49
2.5870,-36.32
2.5875,-36.93
2.5880,-34.18
2.5885,-29
2.5890,-23.5
2.5895,-17.09
2.5900,-9.768
2.5905,-4.885
2.5910,-3.664
2.5915,-4.275
2.5920,-3.359
2.5925,-2.444
2.5930,-3.054
2.5935,-4.885
2.5940,-5.19
2.5945,-3.054
2.5950,1.524
2.5955,9.154
2.5960,17.39
2.5965,22.89
2.5970,25.63
2.5975,30.52
2.5980,39.37
2.5985,47
2.5990,48.22
2.5995,47.61
2.6000,50.97
2.6005,53.71
2.6010,48.83
2.6015,37.54
2.6020,29.91
2.6025,27.47
2.6030,23.8
2.6035,17.39
2.6040,15.26
2.6045,19.23
2.6050,21.36
2.6055,18.92
2.6060,17.7
2.6065,20.14
2.6070,19.53
2.6075,10.98
2.6080,1.829
2.6085,-0.6125
2.6090,0.9134
2.6095,1.219
2.6100,0.9134
2.6105,2.745
2.6110,3.965
2.6115,1.524
2.6120,-1.223
2.6125,-0.6125
2.6130,1.829
2.6135,2.745
2.6140,2.745
2.6145,4.576
2.6150,6.712
2.6155,6.102
2.6160,5.186
2.6165,7.323
2.6170,10.07
2.6175,9.459
2.6180,6.712
2.6185,6.712
2.6190,10.37
2.6195,14.34
2.6200,16.78
2.6205,18.92
2.6210,21.67
2.6215,25.33
2.6220,29.91
2.6225,33.26
2.6230,30.82
2.6235,18.31
2.6240,-2.749
2.6245,-26.86
2.6250,-46.7
2.6255,-57.07
2.6260,-55.24
2.6265,-45.78
2.6270,-35.71
2.6275,-29.91
2.6280,-26.25
2.6285,-21.98
2.6290,-20.76
2.6295,-26.25
2.6300,-35.4
2.6305,-40.59
2.6310,-37.54
2.6315,-30.22
2.6320,-23.2
2.6325,-17.7
2.6330,-13.13
2.6335,-7.937
2.6340,-1.833
2.6345,2.745
2.6350,4.881
2.6355,6.102
2.6360,9.764
2.6365,12.82
2.6370,8.238
2.6375,-4.885
2.6380,-16.79
2.6385,-17.4
2.6390,-7.937
2.6395,3.355
2.6400,14.04
2.6405,22.28
2.6410,21.67
2.6415,9.764
2.6420,-6.106
2.6425,-14.96
2.6430,-14.04
2.6435,-9.768
2.6440,-6.411
2.6445,-3.054
2.6450,-0.002135
2.6455,1.829
2.6460,4.881
2.6465,11.9
2.6470,21.36
2.6475,29.91
2.6480,39.37
2.6485,51.27
2.6490,60.43
2.6495,60.12
2.6500,54.02
2.6505,49.74
2.6510,47.61
2.6515,40.89
2.6520,27.77
2.6525,10.07
2.6530,-12.21
2.6535,-38.46
2.6540,-60.13
2.6545,-68.67
2.6550,-67.45
2.6555,-61.65
2.6560,-47.61
2.6565,-25.03
2.6570,-11.29
2.6575,-26.55
2.6580,-62.26
2.6585,-85.15
2.6590,-76.91
2.6595,-51.58
2.6600,-32.05
2.6605,-25.64
2.6610,-23.81
2.6615,-20.14
2.6620,-12.52
2.6625,-2.138
2.6630,6.712
2.6635,10.37
2.6640,7.933
2.6645,3.355
2.6650,-0.002135
2.6655,-1.833
2.6660,-3.054
2.6665,-1.833
2.6670,1.829
2.6675,7.628
2.6680,12.51
2.6685,14.34
2.6690,11.9
2.6695,6.102
2.6700,-0.002135
2.6705,-4.885
2.6710,-7.632
2.6715,-5.496
2.6720,5.797
2.6725,25.94
2.6730,47.91
2.6735,65
2.6740,74.77
2.6745,80.57
2.6750,88.81
2.6755,104.4
2.6760,125.7
2.6765,143.1
2.6770,150.2
2.6775,149.2
2.6780,144.7
2.6785,139.2
2.6790,134.6
2.6795,132.5
2.6800,124.2
2.6805,94.3
2.6810,39.67
2.6815,-21.98
2.6820,-74.16
2.6825,-116.9
2.6830,-159.6
2.6835,-199.6
2.6840,-226.2
2.6845,-234.7
2.6850,-224.9
2.6855,-196.9
2.6860,-156.3
2.6865,-121.2
2.6870,-105.9
2.6875,-103.8
2.6880,-98.89
2.6885,-87.59
2.6890,-78.74
2.6895,-75.39
2.6900,-71.72
2.6905,-60.74
2.6910,-40.9
2.6915,-14.65
2.6920,8.849
2.6925,19.23
2.6930,11.6
2.6935,-7.327
2.6940,-28.69
2.6945,-47.92
2.6950,-61.65
2.6955,-68.67
2.6960,-76.61
2.6965,-97.97
2.6970,-130.9
2.6975,-158.1
2.6980,-169.1
2.6985,-174.6
2.6990,-183.4
2.6995,-180.7
2.7000,-144.1
2.7005,-72.64
2.7010,9.154
2.7015,76.91
2.7020,123.3
2.7025,154.4
2.7030,177.9
2.7035,198.1
2.7040,215.2
2.7045,228
2.7050,232.6
2.7055,226.8
2.7060,212.4
2.7065,196.8
2.7070,184
2.7075,168.2
2.7080,137.9
2.7085,92.47
2.7090,50.05
2.7095,32.04
2.7100,43.64
2.7105,68.06
2.7110,83.32
2.7115,79.35
2.7120,63.17
2.7125,49.13
2.7130,46.39
2.7135,51.88
2.7140,57.98
2.7145,60.73
2.7150,62.26
2.7155,65
2.7160,68.06
2.7165,68.67
2.7170,64.09
2.7175,50.05
2.7180,27.16
2.7185,2.134
2.7190,-15.26
2.7195,-25.64
2.7200,-35.4
2.7205,-45.48
2.7210,-45.78
2.7215,-33.88
2.7220,-23.5
2.7225,-30.52
2.7230,-52.19
2.7235,-68.37
2.7240,-64.4
2.7245,-47.92
2.7250,-34.49
2.7255,-29.3
2.7260,-26.25
2.7265,-21.06
2.7270,-20.45
2.7275,-27.47
2.7280,-34.49
2.7285,-32.96
2.7290,-26.55
2.7295,-27.77
2.7300,-39.68
2.7305,-51.58
2.7310,-49.75
2.7315,-30.83
2.7320,-1.833
2.7325,27.47
2.7330,50.35
2.7335,61.65
2.7340,60.12
2.7345,49.74
2.7350,36.32
2.7355,25.63
2.7360,20.75
2.7365,20.75
2.7370,21.67
2.7375,19.53
2.7380,15.56
2.7385,12.51
2.7390,13.12
2.7395,17.7
2.7400,27.16
2.7405,39.98
2.7410,47.61
2.7415,42.73
2.7420,28.08
2.7425,13.43
2.7430,2.134
2.7435,-13.43
2.7440,-36.93
2.7445,-59.21
2.7450,-71.11
2.7455,-75.08
2.7460,-80.27
2.7465,-90.03
2.7470,-99.19
2.7475,-103.5
2.7480,-102.2
2.7485,-98.27
2.7490,-93.7
2.7495,-91.87
2.7500,-94
2.7505,-94.31
2.7510,-85.76
2.7515,-68.06
2.7520,-47.92
2.7525,-32.66
2.7530,-24.42
2.7535,-21.06
2.7540,-19.53
2.7545,-17.09
2.7550,-11.9
2.7555,-6.716
2.7560,-3.359
2.7565,-1.528
2.7570,1.524
2.7575,5.491
2.7580,7.628
2.7585,7.628
2.7590,8.849
2.7595,11.9
2.7600,16.78
2.7605,23.19
2.7610,32.04
2.7615,39.98
2.7620,44.25
2.7625,44.86
2.7630,46.39
2.7635,49.44
2.7640,51.58
2.7645,49.74
2.7650,42.11
2.7655,26.55
2.7660,4.271
2.7665,-14.96
2.7670,-18.62
2.7675,-4.275
2.7680,15.87
2.7685,30.52
2.7690,36.62
2.7695,37.23
2.7700,32.35
2.7705,21.06
2.7710,10.37
2.7715,10.07
2.7720,19.84
2.7725,27.47
2.7730,22.28
2.7735,5.797
2.7740,-9.768
2.7745,-17.09
2.7750,-15.87
2.7755,-13.43
2.7760,-17.09
2.7765,-28.39
2.7770,-38.46
2.7775,-36.93
2.7780,-22.28
2.7785,-7.632
2.7790,-6.411
2.7795,-17.09
2.7800,-25.64
2.7805,-24.11
2.7810,-18.01
2.7815,-14.65
2.7820,-13.74
2.7825,-11.6
2.7830,-8.548
2.7835,-9.158
2.7840,-10.99
2.7845,-10.07
2.7850,-6.106
2.7855,-3.054
2.7860,-2.138
2.7865,-0.9177
2.7870,0.9134
2.7875,1.219
2.7880,0.6083
2.7885,3.66
2.7890,9.154
2.7895,10.68
2.7900,6.102
2.7905,1.829
2.7910,4.271
2.7915,11.9
2.7920,19.53
2.7925,26.85
2.7930,34.48
2.7935,40.89
2.7940,43.03
2.7945,42.73
2.7950,40.89
2.7955,34.79
2.7960,21.06
2.7965,2.745
2.7970,-11.9
2.7975,-14.96
2.7980,-2.138
2.7985,21.06
2.7990,40.89
2.7995,42.11
2.8000,24.72
2.8005,0.9134
2.8010,-16.79
2.8015,-25.64
2.8020,-27.16
2.8025,-21.98
2.8030,-14.65
2.8035,-11.9
2.8040,-14.65
2.8045,-14.96
2.8050,-7.937
2.8055,0.9134
2.8060,4.576
2.8065,3.66
2.8070,1.829
2.8075,-1.833
2.8080,-11.29
2.8085,-25.64
2.8090,-40.59
2.8095,-54.33
2.8100,-66.23
2.8105,-72.94
2.8110,-73.25
2.8115,-71.11
2.8120,-71.11
2.8125,-71.11
2.8130,-67.45
2.8135,-61.96
2.8140,-60.13
2.8145,-61.35
2.8150,-58.9
2.8155,-47.92
2.8160,-29.91
2.8165,-9.158
2.8170,13.73
2.8175,40.59
2.8180,72.63
2.8185,108
2.8190,139.8
2.8195,157.5
2.8200,156.9
2.8205,143.1
2.8210,127
2.8215,112.6
2.8220,96.74
2.8225,76.3
2.8230,51.58
2.8235,26.24
2.8240,3.965
2.8245,-8.548
2.8250,-7.327
2.8255,1.829
2.8260,7.628
2.8265,1.829
2.8270,-9.463
2.8275,-17.4
2.8280,-18.62
2.8285,-16.18
2.8290,-12.21
2.8295,-7.327
2.8300,-3.97
2.8305,-4.58
2.8310,-8.242
2.8315,-10.38
2.8320,-10.68
2.8325,-11.6
2.8330,-14.35
2.8335,-16.48
2.8340,-16.79
2.8345,-16.79
2.8350,-17.7
2.8355,-18.01
2.8360,-16.18
2.8365,-14.35
2.8370,-13.13
2.8375,-13.13
2.8380,-13.13
2.8385,-13.74
2.8390,-15.26
2.8395,-16.79
2.8400,-17.7
2.8405,-18.01
2.8410,-17.4
2.8415,-14.65
2.8420,-10.38
2.8425,-5.496
2.8430,-1.528
2.8435,1.829
2.8440,5.186
2.8445,7.017
2.8450,6.712
2.8455,5.491
2.8460,4.881
2.8465,4.576
2.8470,3.355
2.8475,2.134
2.8480,0.9134
2.8485,-1.833
2.8490,-7.937
2.8495,-14.35
2.8500,-17.09
2.8505,-16.18
2.8510,-14.96
2.8515,-15.57
2.8520,-15.87
2.8525,-13.74
2.8530,-9.768
2.8535,-7.632
2.8540,-9.158
2.8545,-11.9
2.8550,-13.13
2.8555,-13.13
2.8560,-14.35
2.8565,-16.18
2.8570,-15.57
2.8575,-9.768
2.8580,-3.97
2.8585,-4.885
2.8590,-12.52
2.8595,-19.23
2.8600,-18.92
2.8605,-14.35
2.8610,-8.853
2.8615,-3.359
2.8620,0.6083
2.8625,-1.223
2.8630,-10.68
2.8635,-21.37
2.8640,-23.81
2.8645,-16.79
2.8650,-7.632
2.8655,-1.528
2.8660,2.745
2.8665,8.543
2.8670,14.34
2.8675,18.61
2.8680,20.14
2.8685,19.23
2.8690,16.48
2.8695,13.73
2.8700,10.98
2.8705,7.017
2.8710,-0.002135
2.8715,-7.327
2.8720,-13.74
2.8725,-18.01
2.8730,-19.23
2.8735,-15.87
2.8740,-5.496
2.8745,7.628
2.8750,16.17
2.8755,17.39
2.8760,14.65
2.8765,11.9
2.8770,10.37
2.8775,9.764
2.8780,8.238
2.8785,4.576
2.8790,-1.223
2.8795,-6.106
2.8800,-5.19
2.8805,1.829
2.8810,9.154
2.8815,10.37
2.8820,5.491
2.8825,-0.002135
2.8830,-1.223
2.8835,0.3031
2.8840,0.9134
2.8845,-0.3073
2.8850,-0.6125
2.8855,2.134
2.8860,5.186
2.8865,5.186
2.8870,4.271
2.8875,5.186
2.8880,6.102
2.8885,4.271
2.8890,2.134
2.8895,3.66
2.8900,5.797
2.8905,4.576
2.8910,2.745
2.8915,6.407
2.8920,10.68
2.8925,7.017
2.8930,0.9134
2.8935,4.881
2.8940,15.87
2.8945,20.14
2.8950,17.09
2.8955,18
2.8960,19.53
2.8965,-3.054
2.8970,-61.96
2.8975,-131.8
2.8980,-175.8
2.8985,-177
2.8990,-141.6
2.8995,-85.15
2.9000,-29.61
2.9005,0.6083
2.9010,2.439
2.9015,-1.833
2.9020,10.07
2.9025,33.87
2.9030,50.97
2.9035,58.6
2.9040,69.89
2.9045,92.17
2.9050,115.7
2.9055,127
2.9060,123.6
2.9065,115.1
2.9070,112
2.9075,120.2
2.9080,134
2.9085,142.5
2.9090,139.5
2.9095,123
2.9100,94
2.9105,56.76
2.9110,25.63
2.9115,17.7
2.9120,31.13
2.9125,42.42
2.9130,31.74
2.9135,1.524
2.9140,-29.3
2.9145,-50.97
2.9150,-65.31
2.9155,-73.86
2.9160,-73.25
2.9165,-63.79
2.9170,-51.89
2.9175,-44.87
2.9180,-42.12
2.9185,-39.98
2.9190,-36.32
2.9195,-32.66
2.9200,-31.13
2.9205,-32.05
2.9210,-32.66
2.9215,-31.74
2.9220,-29.3
2.9225,-27.16
2.9230,-26.25
2.9235,-25.03
2.9240,-22.89
2.9245,-20.45
2.9250,-18.31
2.9255,-16.48
2.9260,-14.35
2.9265,-12.52
2.9270,-11.29
2.9275,-9.768
2.9280,-8.242
2.9285,-7.022
2.9290,-7.327
2.9295,-8.853
2.9300,-9.463
2.9305,-9.158
2.9310,-8.853
2.9315,-9.768
2.9320,-10.99
2.9325,-11.6
2.9330,-10.99
2.9335,-9.768
2.9340,-8.853
2.9345,-7.937
2.9350,-7.937
2.9355,-8.242
2.9360,-8.548
2.9365,-7.327
2.9370,-5.496
2.9375,-4.275
2.9380,-4.275
2.9385,-4.275
2.9390,-3.664
2.9395,-3.359
2.9400,-3.359
2.9405,-3.664
2.9410,-3.054
2.9415,-2.444
2.9420,-2.444
2.9425,-2.444
2.9430,-0.9177
2.9435,0.3031
2.9440,0.9134
2.9445,0.9134
2.9450,1.219
2.9455,1.829
2.9460,1.524
2.9465,1.219
2.9470,1.524
2.9475,2.134
2.9480,2.134
2.9485,1.524
2.9490,1.524
2.9495,2.134
2.9500,1.829
2.9505,1.219
2.9510,1.829
2.9515,3.66
2.9520,3.965
2.9525,3.05
2.9530,2.134
2.9535,2.439
2.9540,3.05
2.9545,3.05
2.9550,3.355
2.9555,3.965
2.9560,4.271
2.9565,3.965
2.9570,4.271
2.9575,4.881
2.9580,4.576
2.9585,3.355
2.9590,2.439
2.9595,2.439
2.9600,2.745
2.9605,1.829
2.9610,1.219
2.9615,0.6083
2.9620,0.6083
2.9625,0.6083
2.9630,0.9134
2.9635,0.9134
2.9640,0.3031
2.9645,-0.002135
2.9650,0.6083
2.9655,1.524
2.9660,1.219
2.9665,0.9134
2.9670,1.524
2.9675,2.745
2.9680,2.439
2.9685,0.9134
2.9690,-0.6125
2.9695,-0.9177
2.9700,-0.6125
2.9705,-0.3073
2.9710,-0.002135
2.9715,-0.002135
2.9720,0.6083
2.9725,2.134
2.9730,4.576
2.9735,5.186
2.9740,2.439
2.9745,-0.6125
2.9750,-0.9177
2.9755,2.134
2.9760,4.881
2.9765,4.576
2.9770,3.05
2.9775,2.745
2.9780,3.05
2.9785,2.439
2.9790,1.219
2.9795,-0.002135
2.9800,-0.3073
2.9805,-0.9177
2.9810,-0.3073
2.9815,-0.002135
2.9820,-0.3073
2.9825,-1.833
2.9830,-1.833
2.9835,1.219
2.9840,3.05
2.9845,0.6083
2.9850,-2.444
2.9855,-0.002135
2.9860,6.712
2.9865,11.9
2.9870,10.37
2.9875,6.407
2.9880,4.881
2.9885,5.491
2.9890,6.102
2.9895,5.797
2.9900,5.491
2.9905,4.576
2.9910,2.134
2.9915,0.6083
2.9920,0.9134
2.9925,-0.002135
2.9930,-4.58
2.9935,-11.6
2.9940,-14.96
2.9945,-13.43
2.9950,-10.07
2.9955,-7.632
2.9960,-5.801
2.9965,-3.664
2.9970,-1.223
2.9975,1.219
2.9980,3.965
2.9985,6.712
2.9990,7.323
2.9995,4.576
3.0000,-0.002135
3.0005,-4.58
3.0010,-6.411
3.0015,-4.885
3.0020,-2.138
3.0025,-0.3073
3.0030,-0.002135
3.0035,-0.002135
3.0040,0.6083
3.0045,1.524
3.0050,2.134
3.0055,2.745
3.0060,3.66
3.0065,4.576
3.0070,4.271
3.0075,1.524
3.0080,-4.58
3.0085,-12.21
3.0090,-16.48
3.0095,-13.74
3.0100,-7.937
3.0105,-4.885
3.0110,-4.885
3.0115,-2.749
3.0120,3.05
3.0125,10.07
3.0130,12.82
3.0135,11.6
3.0140,8.543
3.0145,7.017
3.0150,9.764
3.0155,14.65
3.0160,15.56
3.0165,7.017
3.0170,-7.937
3.0175,-21.37
3.0180,-28.08
3.0185,-30.22
3.0190,-30.83
3.0195,-29
3.0200,-22.89
3.0205,-13.43
3.0210,-2.138
3.0215,9.154
3.0220,17.7
3.0225,20.75
3.0230,20.45
3.0235,20.14
3.0240,18.92
3.0245,11.9
3.0250,0.6083
3.0255,-6.411
3.0260,-3.664
3.0265,4.881
3.0270,12.21
3.0275,15.56
3.0280,17.09
3.0285,19.23
3.0290,21.67
3.0295,24.72
3.0300,27.47
3.0305,25.94
3.0310,18.31
3.0315,7.933
3.0320,-0.002135
3.0325,-2.749
3.0330,-3.97
3.0335,-5.19
3.0340,-5.19
3.0345,-2.749
3.0350,0.6083
3.0355,3.05
3.0360,3.965
3.0365,4.576
3.0370,5.491
3.0375,7.323
3.0380,9.154
3.0385,10.68
3.0390,12.21
3.0395,11.6
3.0400,8.238
3.0405,3.05
3.0410,-0.6125
3.0415,-2.749
3.0420,-3.97
3.0425,-5.19
3.0430,-5.19
3.0435,-3.97
3.0440,-4.275
3.0445,-7.632
3.0450,-12.21
3.0455,-14.65
3.0460,-14.96
3.0465,-14.65
3.0470,-14.04
3.0475,-13.43
3.0480,-12.82
3.0485,-13.74
3.0490,-14.35
3.0495,-14.04
3.0500,-14.04
3.0505,-15.26
3.0510,-17.09
3.0515,-17.7
3.0520,-16.18
3.0525,-14.35
3.0530,-12.82
3.0535,-10.68
3.0540,-8.548
3.0545,-7.327
3.0550,-6.716
3.0555,-5.801
3.0560,-4.885
3.0565,-4.885
3.0570,-5.496
3.0575,-5.496
3.0580,-4.885
3.0585,-4.58
3.0590,-4.885
3.0595,-3.97
3.0600,-1.833
3.0605,-0.3073
3.0610,-1.223
3.0615,-2.749
3.0620,-3.054
3.0625,-1.833
3.0630,-0.9177
3.0635,-0.9177
3.0640,-1.833
3.0645,-2.444
3.0650,-2.444
3.0655,-1.528
3.0660,-0.6125
3.0665,-0.3073
3.0670,-0.9177
3.0675,-0.9177
3.0680,-0.6125
3.0685,-0.3073
3.0690,-0.9177
3.0695,-1.223
3.0700,-0.6125
3.0705,-0.3073
3.0710,-0.6125
3.0715,-0.9177
3.0720,-0.3073
3.0725,0.3031
3.0730,-0.002135
3.0735,-0.6125
3.0740,-0.9177
3.0745,-0.3073
3.0750,-0.002135
3.0755,0.6083
3.0760,1.219
3.0765,1.524
3.0770,0.6083
3.0775,-0.3073
3.0780,-0.3073
3.0785,0.3031
3.0790,1.219
3.0795,1.829
3.0800,2.745
3.0805,3.66
3.0810,3.05
3.0815,1.829
3.0820,1.524
3.0825,2.439
3.0830,2.439
3.0835,1.524
3.0840,1.219
3.0845,1.829
3.0850,1.829
3.0855,1.219
3.0860,1.219
3.0865,1.829
3.0870,1.219
3.0875,-0.002135
3.0880,-0.002135
3.0885,1.829
3.0890,2.439
3.0895,0.6083
3.0900,-0.6125
3.0905,0.3031
3.0910,2.439
3.0915,2.439
3.0920,0.9134
3.0925,0.6083
3.0930,0.9134
3.0935,-0.002135
3.0940,-0.9177
3.0945,-0.6125
3.0950,0.3031
3.0955,1.219
3.0960,0.9134
3.0965,1.219
3.0970,1.829
3.0975,1.829
3.0980,1.219
3.0985,0.9134
3.0990,-0.002135
3.0995,-0.9177
3.1000,-1.223
3.1005,-0.002135
3.1010,0.9134
3.1015,0.3031
3.1020,-0.3073
3.1025,-0.002135
3.1030,1.829
3.1035,2.439
3.1040,1.524
3.1045,0.9134
3.1050,1.524
3.1055,1.524
3.1060,0.3031
3.1065,-0.002135
3.1070,0.9134
3.1075,2.134
3.1080,1.524
3.1085,0.9134
3.1090,1.219
3.1095,2.134
3.1100,2.134
3.1105,2.134
3.1110,2.134
3.1115,1.524
3.1120,-0.6125
3.1125,-3.664
3.1130,-4.58
3.1135,-3.97
3.1140,-3.054
3.1145,-2.749
3.1150,-1.833
3.1155,-1.223
3.1160,-2.138
3.1165,-4.58
3.1170,-5.801
3.1175,-5.496
3.1180,-5.19
3.1185,-5.496
3.1190,-3.664
3.1195,-0.002135
3.1200,3.965
3.1205,4.576
3.1210,3.355
3.1215,3.355
3.1220,3.965
3.1225,3.05
3.1230,1.524
3.1235,1.524
3.1240,3.05
3.1245,3.965
3.1250,3.66
3.1255,3.66
3.1260,3.965
3.1265,2.745
3.1270,0.3031
3.1275,-0.6125
3.1280,0.6083
3.1285,3.355
3.1290,3.965
3.1295,3.05
3.1300,2.439
3.1305,2.745
3.1310,1.829
3.1315,-0.002135
3.1320,-1.833
3.1325,-2.138
3.1330,-1.528
3.1335,-0.9177
3.1340,-0.9177
3.1345,-0.002135
3.1350,0.6083
3.1355,0.9134
3.1360,0.6083
3.1365,0.6083
3.1370,2.134
3.1375,4.881
3.1380,6.407
3.1385,6.407
3.1390,4.881
3.1395,3.66
3.1400,2.439
3.1405,1.829
3.1410,0.6083
3.1415,-0.3073
3.1420,-1.223
3.1425,-1.833
3.1430,-1.528
3.1435,-1.223
3.1440,-0.6125
3.1445,-0.002135
3.1450,0.9134
3.1455,1.829
3.1460,2.134
3.1465,2.134
3.1470,1.524
3.1475,0.9134
3.1480,0.9134
3.1485,1.524
3.1490,2.439
3.1495,2.134
3.1500,0.6083
3.1505,-0.9177
3.1510,-2.138
3.1515,-3.359
3.1520,-5.19
3.1525,-5.19
3.1530,-2.444
3.1535,1.829
3.1540,5.491
3.1545,6.102
3.1550,4.576
3.1555,2.134
3.1560,0.9134
3.1565,1.219
3.1570,1.829
3.1575,2.134
3.1580,1.829
3.1585,1.524
3.1590,1.219
3.1595,1.219
3.1600,0.6083
3.1605,0.3031
3.1610,0.3031
3.1615,0.3031
3.1620,0.9134
3.1625,1.829
3.1630,2.439
3.1635,2.439
3.1640,2.134
3.1645,1.524
3.1650,1.219
3.1655,1.219
3.1660,1.524
3.1665,1.829
3.1670,2.134
3.1675,2.439
3.1680,2.439
3.1685,1.829
3.1690,1.524
3.1695,1.829
3.1700,2.439
3.1705,2.439
3.1710,1.829
3.1715,1.219
3.1720,1.219
3.1725,1.829
3.1730,2.134
3.1735,1.829
3.1740,0.9134
3.1745,0.3031
3.1750,0.6083
3.1755,0.9134
3.1760,0.3031
3.1765,-0.6125
3.1770,-1.223
3.1775,-0.3073
3.1780,1.219
3.1785,1.829
3.1790,0.6083
3.1795,-0.3073
3.1800,-0.002135
3.1805,-0.002135
3.1810,-0.6125
3.1815,-1.223
3.1820,-0.3073
3.1825,0.9134
3.1830,0.6083
3.1835,-0.002135
3.1840,-0.6125
3.1845,-0.3073
3.1850,-0.002135
3.1855,-0.002135
3.1860,0.3031
3.1865,0.6083
3.1870,0.3031
3.1875,-0.6125
3.1880,-1.223
3.1885,-0.6125
3.1890,-0.002135
3.1895,-0.3073
3.1900,-0.6125
3.1905,-0.6125
3.1910,-0.6125
3.1915,-0.6125
3.1920,-0.6125
3.1925,-0.6125
3.1930,-0.9177
3.1935,-0.9177
3.1940,-0.3073
3.1945,-0.002135
3.1950,-0.002135
3.1955,-0.3073
3.1960,-0.6125
3.1965,-0.9177
3.1970,-1.223
3.1975,-1.223
3.1980,-0.002135
3.1985,0.6083
3.1990,0.6083
3.1995,-0.002135
3.2000,-1.223
3.2005,-1.528
3.2010,-0.9177
3.2015,-0.002135
3.2020,-0.002135
3.2025,-0.3073
3.2030,-0.9177
3.2035,-0.002135
3.2040,2.439
3.2045,3.05
3.2050,1.829
3.2055,0.6083
3.2060,0.9134
3.2065,1.524
3.2070,1.219
3.2075,1.219
3.2080,3.965
3.2085,9.154
3.2090,14.04
3.2095,14.34
3.2100,10.37
3.2105,4.271
3.2110,-0.3073
3.2115,-3.054
3.2120,-4.58
3.2125,-7.327
3.2130,-11.9
3.2135,-16.18
3.2140,-18.31
3.2145,-18.62
3.2150,-18.62
3.2155,-17.7
3.2160,-16.18
3.2165,-13.43
3.2170,-10.99
3.2175,-10.38
3.2180,-11.29
3.2185,-11.6
3.2190,-9.158
3.2195,-3.359
3.2200,3.965
3.2205,10.68
3.2210,15.26
3.2215,17.39
3.2220,17.09
3.2225,15.26
3.2230,11.9
3.2235,8.543
3.2240,7.017
3.2245,8.849
3.2250,12.82
3.2255,13.43
3.2260,7.323
3.2265,-1.223
3.2270,-5.801
3.2275,-3.97
3.2280,-0.3073
3.2285,1.219
3.2290,0.9134
3.2295,0.9134
3.2300,2.134
3.2305,2.439
3.2310,1.524
3.2315,0.3031
3.2320,-0.002135
3.2325,-0.002135
3.2330,-0.002135
3.2335,-0.6125
3.2340,-2.138
3.2345,-3.359
3.2350,-3.664
3.2355,-3.97
3.2360,-5.19
3.2365,-5.801
3.2370,-5.19
3.2375,-3.359
3.2380,-3.359
3.2385,-4.885
3.2390,-5.496
3.2395,-3.97
3.2400,-2.138
3.2405,-0.9177
3.2410,-0.9177
3.2415,-1.223
3.2420,-1.528
3.2425,-1.528
3.2430,-1.223
3.2435,-0.6125
3.2440,-0.3073
3.2445,-0.6125
3.2450,-0.3073
3.2455,0.6083
3.2460,0.9134
3.2465,-0.3073
3.2470,-2.444
3.2475,-3.664
3.2480,-3.664
3.2485,-3.97
3.2490,-4.58
3.2495,-5.19
3.2500,-4.58
3.2505,-3.359
3.2510,-3.359
3.2515,-3.664
3.2520,-3.664
3.2525,-3.664
3.2530,-3.97
3.2535,-4.58
3.2540,-4.58
3.2545,-3.054
3.2550,-1.223
3.2555,-0.002135
3.2560,-0.3073
3.2565,-1.223
3.2570,-1.223
3.2575,-0.3073
3.2580,0.9134
3.2585,2.745
3.2590,4.271
3.2595,6.102
3.2600,7.017
3.2605,6.102
3.2610,4.271
3.2615,3.05
3.2620,3.355
3.2625,3.05
3.2630,1.829
3.2635,1.219
3.2640,0.9134
3.2645,0.6083
3.2650,0.3031
3.2655,0.9134
3.2660,1.219
3.2665,-0.3073
3.2670,-2.749
3.2675,-2.749
3.2680,-1.223
3.2685,-2.749
3.2690,-7.937
3.2695,-11.6
3.2700,-10.38
3.2705,-9.463
3.2710,-9.768
3.2715,-3.054
3.2720,15.26
3.2725,35.1
3.2730,39.67
3.2735,30.52
3.2740,21.36
3.2745,15.87
3.2750,1.524
3.2755,-25.94
3.2760,-52.8
3.2765,-63.79
3.2770,-62.26
3.2775,-62.57
3.2780,-67.45
3.2785,-67.45
3.2790,-57.38
3.2795,-42.12
3.2800,-27.47
3.2805,-13.13
3.2810,1.219
3.2815,14.04
3.2820,21.67
3.2825,26.55
3.2830,31.74
3.2835,39.37
3.2840,48.83
3.2845,57.68
3.2850,62.87
3.2855,60.12
3.2860,47
3.2865,27.77
3.2870,11.6
3.2875,3.05
3.2880,-0.9177
3.2885,-4.58
3.2890,-5.801
3.2895,1.524
3.2900,15.87
3.2905,28.08
3.2910,30.82
3.2915,28.38
3.2920,26.55
3.2925,25.63
3.2930,21.97
3.2935,15.56
3.2940,9.764
3.2945,5.797
3.2950,2.134
3.2955,-1.223
3.2960,-2.444
3.2965,-2.138
3.2970,-3.054
3.2975,-5.801
3.2980,-7.937
3.2985,-7.632
3.2990,-7.327
3.2995,-8.242
3.3000,-9.463
3.3005,-9.768
3.3010,-9.158
3.3015,-7.937
3.3020,-6.106
3.3025,-3.359
3.3030,-1.528
3.3035,-1.223
3.3040,-1.833
3.3045,-3.359
3.3050,-4.58
3.3055,-3.664
3.3060,-0.9177
3.3065,0.9134
3.3070,-0.3073
3.3075,-3.97
3.3080,-5.496
3.3085,-4.275
3.3090,-4.275
3.3095,-7.022
3.3100,-9.463
3.3105,-8.853
3.3110,-6.716
3.3115,-6.411
3.3120,-6.716
3.3125,-6.106
3.3130,-4.58
3.3135,-3.664
3.3140,-4.275
3.3145,-6.411
3.3150,-9.158
3.3155,-12.82
3.3160,-17.7
3.3165,-22.89
3.3170,-27.47
3.3175,-30.22
3.3180,-30.22
3.3185,-25.94
3.3190,-18.01
3.3195,-8.548
3.3200,-0.9177
3.3205,2.745
3.3210,4.271
3.3215,7.628
3.3220,13.43
3.3225,16.78
3.3230,13.73
3.3235,6.102
3.3240,-0.6125
3.3245,-6.106
3.3250,-14.35
3.3255,-26.86
3.3260,-39.07
3.3265,-46.09
3.3270,-47.31
3.3275,-43.64
3.3280,-37.85
3.3285,-32.66
3.3290,-33.27
3.3295,-39.07
3.3300,-41.51
3.3305,-33.27
3.3310,-17.09
3.3315,-2.749
3.3320,5.186
3.3325,10.07
3.3330,14.65
3.3335,18
3.3340,20.14
3.3345,24.72
3.3350,30.82
3.3355,33.26
3.3360,31.13
3.3365,31.13
3.3370,38.76
3.3375,52.8
3.3380,67.75
3.3385,81.18
3.3390,90.03
3.3395,90.03
3.3400,80.26
3.3405,67.45
3.3410,57.68
3.3415,48.83
3.3420,37.23
3.3425,25.63
3.3430,18.61
3.3435,13.73
3.3440,6.102
3.3445,-3.054
3.3450,-8.548
3.3455,-8.548
3.3460,-6.716
3.3465,-8.548
3.3470,-14.65
3.3475,-21.37
3.3480,-23.81
3.3485,-18.62
3.3490,-10.07
3.3495,-4.275
3.3500,-2.444
3.3505,0.6083
3.3510,6.712
3.3515,10.37
3.3520,7.933
3.3525,3.66
3.3530,1.219
3.3535,-1.833
3.3540,-7.632
3.3545,-10.07
3.3550,-5.496
3.3555,1.524
3.3560,5.797
3.3565,9.154
3.3570,11.6
3.3575,7.323
3.3580,-5.496
3.3585,-20.45
3.3590,-28.08
3.3595,-31.13
3.3600,-36.32
3.3605,-41.51
3.3610,-39.37
3.3615,-30.52
3.3620,-21.67
3.3625,-13.74
3.3630,-5.19
3.3635,2.134
3.3640,4.576
3.3645,3.355
3.3650,4.576
3.3655,9.459
3.3660,13.73
3.3665,15.87
3.3670,18
3.3675,19.23
3.3680,16.17
3.3685,8.238
3.3690,1.219
3.3695,-0.002135
3.3700,3.05
3.3705,5.491
3.3710,5.797
3.3715,5.186
3.3720,3.355
3.3725,-0.6125
3.3730,-5.801
3.3735,-8.853
3.3740,-8.853
3.3745,-7.327
3.3750,-5.801
3.3755,-2.444
3.3760,2.134
3.3765,4.271
3.3770,-0.9177
3.3775,-9.463
3.3780,-9.768
3.3785,1.219
3.3790,15.26
3.3795,21.36
3.3800,20.75
3.3805,19.53
3.3810,18.61
3.3815,12.82
3.3820,2.439
3.3825,-6.411
3.3830,-10.99
3.3835,-15.26
3.3840,-21.37
3.3845,-25.64
3.3850,-25.03
3.3855,-22.28
3.3860,-21.98
3.3865,-22.89
3.3870,-23.81
3.3875,-24.72
3.3880,-26.55
3.3885,-24.42
3.3890,-15.26
3.3895,-4.885
3.3900,-1.528
3.3905,-3.97
3.3910,-4.885
3.3915,-3.664
3.3920,-6.716
3.3925,-14.65
3.3930,-18.01
3.3935,-13.43
3.3940,-9.463
3.3945,-8.853
3.3950,0.9134
3.3955,26.24
3.3960,50.05
3.3965,52.8
3.3970,39.98
3.3975,32.35
3.3980,34.18
3.3985,31.13
3.3990,15.26
3.3995,-3.359
3.4000,-17.09
3.4005,-29.3
3.4010,-43.64
3.4015,-53.72
3.4020,-51.89
3.4025,-35.4
3.4030,-6.716
3.4035,25.94
3.4040,46.39
3.4045,40.59
3.4050,13.43
3.4055,-17.09
3.4060,-45.78
3.4065,-79.35
3.4070,-116.3
3.4075,-141
3.4080,-144.4
3.4085,-134.6
3.4090,-116.6
3.4095,-84.24
3.4100,-37.54
3.4105,5.186
3.4110,27.16
3.4115,35.1
3.4120,46.39
3.4125,66.84
3.4130,86.98
3.4135,98.27
3.4140,100.4
3.4145,93.08
3.4150,76.6
3.4155,55.54
3.4160,37.23
3.4165,25.94
3.4170,21.97
3.4175,26.24
3.4180,35.1
3.4185,42.11
3.4190,42.11
3.4195,39.98
3.4200,42.73
3.4205,49.44
3.4210,54.32
3.4215,56.15
3.4220,54.32
3.4225,45.47
3.4230,29.91
3.4235,26.24
3.4240,54.93
3.4245,106.8
3.4250,142.2
3.4255,134.9
3.4260,100.7
3.4265,71.41
3.4270,54.93
3.4275,39.98
3.4280,25.02
3.4285,14.04
3.4290,-3.97
3.4295,-42.73
3.4300,-81.79
3.4305,-84.54
3.4310,-53.72
3.4315,-37.24
3.4320,-65.31
3.4325,-113.8
3.4330,-145.3
3.4335,-158.1
3.4340,-169.1
3.4345,-177.6
3.4350,-174
3.4355,-166.3
3.4360,-166
3.4365,-160.8
3.4370,-132.8
3.4375,-90.34
3.4380,-57.99
3.4385,-34.79
3.4390,0.3031
3.4395,50.05
3.4400,88.5
3.4405,95.52
3.4410,77.52
3.4415,51.58
3.4420,28.08
3.4425,13.73
3.4430,10.07
3.4435,9.154
3.4440,-0.9177
3.4445,-17.7
3.4450,-26.25
3.4455,-19.53
3.4460,-6.716
3.4465,1.829
3.4470,6.407
3.4475,10.37
3.4480,12.51
3.4485,11.9
3.4490,11.29
3.4495,11.9
3.4500,12.21
3.4505,11.9
3.4510,13.12
3.4515,16.48
3.4520,18.61
3.4525,17.7
3.4530,15.87
3.4535,15.87
3.4540,17.09
3.4545,19.23
3.4550,20.75
3.4555,21.06
3.4560,19.53
3.4565,17.39
3.4570,17.09
3.4575,17.7
3.4580,18
3.4585,18
3.4590,18.61
3.4595,18.61
3.4600,17.7
3.4605,16.48
3.4610,17.09
3.4615,18.92
3.4620,18.92
3.4625,16.78
3.4630,15.26
3.4635,15.87
3.4640,16.48
3.4645,14.95
3.4650,12.21
3.4655,10.68
3.4660,10.98
3.4665,10.68
3.4670,8.238
3.4675,6.102
3.4680,7.017
3.4685,9.764
3.4690,11.29
3.4695,11.9
3.4700,14.95
3.4705,20.75
3.4710,23.5
3.4715,19.23
3.4720,12.82
3.4725,8.543
3.4730,5.491
3.4735,0.3031
3.4740,-3.664
3.4745,-2.138
3.4750,0.9134
3.4755,-0.002135
3.4760,-3.664
3.4765,-3.97
3.4770,-0.3073
3.4775,1.524
3.4780,1.524
3.4785,3.66
3.4790,5.797
3.4795,3.05
3.4800,-0.6125
3.4805,0.9134
3.4810,4.881
3.4815,3.05
3.4820,-1.528
3.4825,0.9134
3.4830,7.323
3.4835,3.965
3.4840,-2.749
3.4845,11.6
3.4850,51.27
3.4855,77.82
3.4860,57.37
3.4865,3.66
3.4870,-41.51
3.4875,-62.57
3.4880,-77.22
3.4885,-98.89
3.4890,-117.5
3.4895,-118.7
3.4900,-104.7
3.4905,-83.93
3.4910,-60.43
3.4915,-33.27
3.4920,-3.664
3.4925,26.85
3.4930,60.43
3.4935,93.39
3.4940,116
3.4945,123.3
3.4950,123
3.4955,124.2
3.4960,117.5
3.4965,86.67
3.4970,33.26
3.4975,-16.48
3.4980,-39.68
3.4985,-37.54
3.4990,-25.64
3.4995,-13.43
3.5000,-3.97
3.5005,-5.496
3.5010,-26.25
3.5015,-56.16
3.5020,-73.55
3.5025,-70.5
3.5030,-59.82
3.5035,-52.5
3.5040,-46.7
3.5045,-37.24
3.5050,-26.25
3.5055,-16.79
3.5060,-5.496
3.5065,8.543
3.5070,21.06
3.5075,28.08
3.5080,34.18
3.5085,43.95
3.5090,54.32
3.5095,59.82
3.5100,57.98
3.5105,48.22
3.5110,35.1
3.5115,25.63
3.5120,25.02
3.5125,28.99
3.5130,33.57
3.5135,39.37
3.5140,50.66
3.5145,63.48
3.5150,68.67
3.5155,58.29
3.5160,29.6
3.5165,-12.82
3.5170,-51.58
3.5175,-66.23
3.5180,-55.24
3.5185,-36.93
3.5190,-23.81
3.5195,-11.9
3.5200,-3.664
3.5205,-8.548
3.5210,-12.82
3.5215,21.97
3.5220,103.2
3.5225,179.5
3.5230,205.7
3.5235,205.1
3.5240,224.9
3.5245,249.6
3.5250,219.4
3.5255,123
3.5260,17.39
3.5265,-54.02
3.5270,-104.7
3.5275,-152.9
3.5280,-185.9
3.5285,-196.9
3.5290,-219.7
3.5295,-279.6
3.5300,-344.3
3.5305,-362.9
3.5310,-327.2
3.5315,-268
3.5320,-203.3
3.5325,-134.9
3.5330,-79.35
3.5335,-64.09
3.5340,-89.73
3.5345,-121.2
3.5350,-126.4
3.5355,-106.5
3.5360,-81.79
3.5365,-62.87
3.5370,-43.34
3.5375,-16.48
3.5380,15.26
3.5385,42.11
3.5390,54.93
3.5395,54.63
3.5400,48.22
3.5405,41.2
3.5410,34.79
3.5415,33.57
3.5420,45.78
3.5425,68.67
3.5430,83.62
3.5435,75.99
3.5440,55.85
3.5445,44.25
3.5450,43.34
3.5455,39.37
3.5460,30.21
3.5465,32.35
3.5470,55.24
3.5475,88.2
3.5480,116.6
3.5485,137.3
3.5490,147.7
3.5495,138.3
3.5500,112.3
3.5505,90.34
3.5510,80.57
3.5515,57.98
3.5520,-1.528
3.5525,-82.1
3.5530,-139.8
3.5535,-154.4
3.5540,-140.1
3.5545,-116.6
3.5550,-91.87
3.5555,-72.33
3.5560,-61.96
3.5565,-51.27
3.5570,-29.61
3.5575,-4.885
3.5580,4.576
3.5585,-0.3073
3.5590,-6.716
3.5595,-7.632
3.5600,-1.223
3.5605,24.72
3.5610,77.82
3.5615,137
3.5620,183.4
3.5625,239
3.5630,336
3.5635,440.4
3.5640,456.6
3.5645,333.6
3.5650,133.4
3.5655,-31.44
3.5660,-104.7
3.5665,-114.1
3.5670,-114.5
3.5675,-129.4
3.5680,-141.6
3.5685,-120.6
3.5690,-57.38
3.5695,17.7
3.5700,65.92
3.5705,76.3
3.5710,71.11
3.5715,71.11
3.5720,68.67
3.5725,39.98
3.5730,-22.28
3.5735,-94.31
3.5740,-139.2
3.5745,-145.3
3.5750,-138
3.5755,-142.5
3.5760,-139.5
3.5765,-86.07
3.5770,19.84
3.5775,120.2
3.5780,155.3
3.5785,119
3.5790,46.39
3.5795,-28.39
3.5800,-85.76
3.5805,-118.4
3.5810,-141.6
3.5815,-180.7
3.5820,-232.6
3.5825,-256.4
3.5830,-226.8
3.5835,-168.8
3.5840,-124.8
3.5845,-100.1
3.5850,-74.16
3.5855,-36.93
3.5860,4.576
3.5865,43.03
3.5870,64.39
3.5875,42.42
3.5880,-33.88
3.5885,-142.5
3.5890,-248.1
3.5895,-331.7
3.5900,-381.8
3.5905,-378.4
3.5910,-317.1
3.5915,-231.3
3.5920,-165.4
3.5925,-126.7
3.5930,-84.85
3.5935,-12.52
3.5940,86.06
3.5945,178.2
3.5950,227.7
3.5955,222.8
3.5960,191.4
3.5965,169.7
3.5970,156.9
3.5975,120.9
3.5980,58.29
3.5985,18
3.5990,47.61
3.5995,134.6
3.6000,224.6
3.6005,279.3
3.6010,290.8
3.6015,266.1
3.6020,221.3
3.6025,183.1
3.6030,170
3.6035,168.8
3.6040,159.3
3.6045,145.9
3.6050,148
3.6055,164.5
3.6060,171.5
3.6065,153.5
3.6070,119
3.6075,81.79
3.6080,44.56
3.6085,10.07
3.6090,-10.68
3.6095,-12.21
3.6100,-2.138
3.6105,3.965
3.6110,-0.002135
3.6115,-9.158
3.6120,-17.7
3.6125,-21.98
3.6130,-22.28
3.6135,-18.62
3.6140,-12.52
3.6145,-7.937
3.6150,-13.74
3.6155,-36.63
3.6160,-70.2
3.6165,-95.22
3.6170,-94.92
3.6175,-71.42
3.6180,-42.42
3.6185,-21.37
3.6190,-7.632
3.6195,1.219
3.6200,3.05
3.6205,-1.528
3.6210,-1.528
3.6215,11.6
3.6220,29.3
3.6225,36.01
3.6230,34.18
3.6235,45.78
3.6240,90.95
3.6245,179.1
3.6250,307.9
3.6255,443.1
3.6260,512.7
3.6265,453.2
3.6270,275.9
3.6275,61.34
3.6280,-121.2
3.6285,-265.2
3.6290,-387.9
3.6295,-479.5
3.6300,-518.5
3.6305,-507.2
3.6310,-466
3.6315,-403.8
3.6320,-323.2
3.6325,-239.9
3.6330,-174.3
3.6335,-127.9
3.6340,-94
3.6345,-76.91
3.6350,-80.88
3.6355,-95.83
3.6360,-105.6
3.6365,-107.4
3.6370,-94
3.6375,-44.56
3.6380,48.83
3.6385,150.2
3.6390,204.8
3.6395,198.7
3.6400,163
3.6405,129.7
3.6410,104.7
3.6415,80.87
3.6420,59.21
3.6425,48.22
3.6430,54.32
3.6435,74.47
3.6440,89.42
3.6445,80.57
3.6450,52.49
3.6455,32.35
3.6460,32.04
3.6465,28.08
3.6470,-7.632
3.6475,-72.94
3.6480,-140.1
3.6485,-184.6
3.6490,-194.7
3.6495,-170.6
3.6500,-129.7
3.6505,-90.95
3.6510,-45.78
3.6515,32.65
3.6520,138.6
3.6525,213
3.6530,213.9
3.6535,175.8
3.6540,165.7
3.6545,195
3.6550,217.3
3.6555,201.4
3.6560,166.9
3.6565,145.6
3.6570,144
3.6575,152.9
3.6580,162.7
3.6585,159
3.6590,127.6
3.6595,73.55
3.6600,22.58
3.6605,-8.548
3.6610,-28.69
3.6615,-54.94
3.6620,-90.64
3.6625,-121.8
3.6630,-127.9
3.6635,-101.6
3.6640,-70.5
3.6645,-72.33
3.6650,-101.6
3.6655,-102.5
3.6660,-52.5
3.6665,-15.57
3.6670,-49.14
3.6675,-90.03
3.6680,-13.74
3.6685,188
3.6690,370.5
3.6695,398
3.6700,274.1
3.6705,78.13
3.6710,-132.5
3.6715,-312.2
3.6720,-396.4
3.6725,-365.9
3.6730,-291.8
3.6735,-253.6
3.6740,-245.1
3.6745,-217.6
3.6750,-169.1
3.6755,-135.2
3.6760,-129.4
3.6765,-145.6
3.6770,-168.8
3.6775,-148
3.6780,-27.47
3.6785,141.9
3.6790,212.1
3.6795,145.9
3.6800,111.7
3.6805,249.6
3.6810,428.5
3.6815,399.8
3.6820,148.6
3.6825,-98.89
3.6830,-203.6
3.6835,-259.7
3.6840,-376.6
3.6845,-493.8
3.6850,-505.1
3.6855,-431.5
3.6860,-363.5
3.6865,-312.2
3.6870,-224
3.6875,-93.09
3.6880,28.08
3.6885,100.7
3.6890,114.8
3.6895,69.28
3.6900,-10.99
3.6905,-68.06
3.6910,-67.14
3.6915,-41.51
3.6920,-34.18
3.6925,-25.33
3.6930,29.3
3.6935,113.8
3.6940,162.4
3.6945,152.9
3.6950,131.5
3.6955,140.4
3.6960,167.2
3.6965,181
3.6970,177
3.6975,165.4
3.6980,145.9
3.6985,112
3.6990,69.28
3.6995,32.96
3.7000,15.56
3.7005,20.75
3.7010,40.89
3.7015,59.51
3.7020,74.47
3.7025,112
3.7030,191.4
3.7035,289.6
3.7040,366.5
3.7045,418.7
3.7050,461.8
3.7055,467.9
3.7060,385.8
3.7065,230.7
3.7070,97.35
3.7075,49.44
3.7080,55.85
3.7085,64.7
3.7090,67.45
3.7095,54.02
3.7100,-16.18
3.7105,-132.8
3.7110,-188.3
3.7115,-108
3.7120,25.33
3.7125,73.85
3.7130,30.82
3.7135,-4.885
3.7140,-22.59
3.7145,-120.6
3.7150,-323.5
3.7155,-496.2
3.7160,-508.8
3.7165,-394.9
3.7170,-277.1
3.7175,-207.5
3.7180,-160.2
3.7185,-130.9
3.7190,-147.1
3.7195,-200.2
3.7200,-245.4
3.7205,-268.6
3.7210,-294.5
3.7215,-315.3
3.7220,-272.8
3.7225,-145
3.7230,-3.97
3.7235,55.85
3.7240,23.8
3.7245,-36.02
3.7250,-80.88
3.7255,-127.6
3.7260,-186.2
3.7265,-208.1
3.7270,-152
3.7275,-65.01
3.7280,-38.46
3.7285,-83.32
3.7290,-111.1
3.7295,-58.6
3.7300,31.43
3.7305,83.93
3.7310,92.47
3.7315,102.2
3.7320,132.8
3.7325,186.8
3.7330,311.6
3.7335,566.1
3.7340,909.8
3.7345,1187
3.7350,1249
3.7355,1060
3.7360,673
3.7365,177.9
3.7370,-303.7
3.7375,-644
3.7380,-802.4
3.7385,-872.6
3.7390,-958.3
3.7395,-1036
3.7400,-1004
3.7405,-850
3.7410,-669.6
3.7415,-519.1
3.7420,-349.1
3.7425,-125.4
3.7430,71.72
3.7435,151.4
3.7440,140.4
3.7445,131.2
3.7450,147.1
3.7455,151.1
3.7460,159.6
3.7465,234.1
3.7470,359.2
3.7475,436.4
3.7480,426.7
3.7485,404.1
3.7490,428.5
3.7495,437
3.7500,333.6
3.7505,138.9
3.7510,-24.42
3.7515,-76.91
3.7520,-50.66
3.7525,-13.74
3.7530,17.39
3.7535,69.89
3.7540,151.1
3.7545,232.3
3.7550,284.1
3.7555,307
3.7560,311.9
3.7565,293.9
3.7570,260.3
3.7575,267.7
3.7580,382.1
3.7585,579.6
3.7590,727.3
3.7595,710.2
3.7600,556.1
3.7605,401.9
3.7610,338.8
3.7615,334.8
3.7620,304.3
3.7625,212.4
3.7630,86.06
3.7635,-43.34
3.7640,-172.7
3.7645,-296
3.7650,-381.8
3.7655,-398.3
3.7660,-365.6
3.7665,-353.7
3.7670,-416.3
3.7675,-527.1
3.7680,-599.7
3.7685,-568.9
3.7690,-439.5
3.7695,-264.6
3.7700,-92.48
3.7705,40.89
3.7710,94.3
3.7715,40.89
3.7720,-79.66
3.7725,-170.9
3.7730,-175.5
3.7735,-145.3
3.7740,-176.7
3.7745,-280.5
3.7750,-370.5
3.7755,-379.1
3.7760,-322
3.7765,-246
3.7770,-166.3
3.7775,-84.54
3.7780,-11.29
3.7785,54.32
3.7790,115.4
3.7795,130.9
3.7800,48.83
3.7805,-93.39
3.7810,-181.3
3.7815,-166
3.7820,-114.1
3.7825,-80.27
3.7830,-32.66
3.7835,39.98
3.7840,61.95
3.7845,1.829
3.7850,-32.96
3.7855,52.8
3.7860,194.7
3.7865,298.5
3.7870,442.2
3.7875,771.2
3.7880,1217
3.7885,1482
3.7890,1348
3.7895,888.7
3.7900,362
3.7905,-30.52
3.7910,-243.5
3.7915,-345.5
3.7920,-425.1
3.7925,-512.7
3.7930,-562.8
3.7935,-526.8
3.7940,-435.8
3.7945,-365
3.7950,-337.9
3.7955,-311
3.7960,-264
3.7965,-244.2
3.7970,-297
3.7975,-387.3
3.7980,-431.2
3.7985,-394
3.7990,-321.1
3.7995,-251.8
3.8000,-141.6
3.8005,76.6
3.8010,359.2
3.8015,548.4
3.8020,547.2
3.8025,443.8
3.8030,391.6
3.8035,411.4
3.8040,387.9
3.8045,256.7
3.8050,90.64
3.8055,-24.11
3.8060,-109.9
3.8065,-231.3
3.8070,-366.5
3.8075,-414.2
3.8080,-313.7
3.8085,-109.6
3.8090,99.49
3.8095,236.2
3.8100,287.8
3.8105,315.6
3.8110,409.6
3.8115,588.1
3.8120,738.9
3.8125,707.7
3.8130,459.9
3.8135,130.6
3.8140,-103.5
3.8145,-191.4
3.8150,-236.5
3.8155,-380.9
3.8160,-657.1
3.8165,-944.9
3.8170,-1073
3.8175,-989.4
3.8180,-823.4
3.8185,-751.1
3.8190,-816.7
3.8195,-920.2
3.8200,-957.4
3.8205,-905.8
3.8210,-766.3
3.8215,-515.8
3.8220,-176.4
3.8225,129.7
3.8230,276.5
3.8235,261.5
3.8240,184.6
3.8245,117.2
3.8250,64.7
3.8255,35.71
3.8260,63.48
3.8265,137.9
3.8270,200.2
3.8275,244.2
3.8280,350.7
3.8285,552.1
3.8290,714.8
3.8295,654.9
3.8300,362.6
3.8305,26.85
3.8310,-174
3.8315,-237.7
3.8320,-261.2
3.8325,-293.6
3.8330,-313.1
3.8335,-288.1
3.8340,-193.2
3.8345,-13.74
3.8350,188.3
3.8355,258.2
3.8360,99.19
3.8365,-177.6
3.8370,-347.9
3.8375,-315
3.8380,-180.7
3.8385,-73.25
3.8390,-11.29
3.8395,41.2
3.8400,97.35
3.8405,171.8
3.8410,303.7
3.8415,471.8
3.8420,557.6
3.8425,459.6
3.8430,208.1
3.8435,-96.14
3.8440,-400.1
3.8445,-680.9
3.8450,-865.2
3.8455,-882.3
3.8460,-780.4
3.8465,-691
3.8470,-649.2
3.8475,-552.4
3.8480,-338.2
3.8485,-111.7
3.8490,-22.28
3.8495,-65.31
3.8500,-99.8
3.8505,-41.2
3.8510,63.48
3.8515,170.3
3.8520,341.2
3.8525,661.7
3.8530,1094
3.8535,1487
3.8540,1709
3.8545,1746
3.8550,1653
3.8555,1493
3.8560,1311
3.8565,1140
3.8570,973
3.8575,773.1
3.8580,519.7
3.8585,274.7
3.8590,159.9
3.8595,242.9
3.8600,441.3
3.8605,565.5
3.8610,481.9
3.8615,218.2
3.8620,-100.4
3.8625,-390
3.8630,-633
3.8635,-802.7
3.8640,-839
3.8645,-731.6
3.8650,-562.5
3.8655,-421.5
3.8660,-314
3.8665,-197.8
3.8670,-76.91
3.8675,-3.054
3.8680,2.439
3.8685,-26.25
3.8690,-59.21
3.8695,-100.7
3.8700,-143.1
3.8705,-141.3
3.8710,-64.7
3.8715,49.74
3.8720,133.1
3.8725,158.4
3.8730,148
3.8735,116
3.8740,41.81
3.8745,-79.05
3.8750,-201.4
3.8755,-278.9
3.8760,-323.8
3.8765,-371.1
3.8770,-399.5
3.8775,-346.4
3.8780,-212.1
3.8785,-92.78
3.8790,-69.59
3.8795,-108.7
3.8800,-113.2
3.8805,-42.73
3.8810,69.89
3.8815,196.2
3.8820,328.4
3.8825,432.5
3.8830,448.9
3.8835,370.8
3.8840,263.7
3.8845,184.6
3.8850,118.4
3.8855,28.99
3.8860,-72.94
3.8865,-156.6
3.8870,-221.6
3.8875,-281.7
3.8880,-316.2
3.8885,-304.9
3.8890,-293.3
3.8895,-354.6
3.8900,-476.4
3.8905,-547.5
3.8910,-496.6
3.8915,-387
3.8920,-333.6
3.8925,-360.4
3.8930,-395.8
3.8935,-385.5
3.8940,-345.5
3.8945,-303.7
3.8950,-250.3
3.8955,-172.1
3.8960,-95.22
3.8965,-57.99
3.8970,-65.31
3.8975,-91.56
3.8980,-112.6
3.8985,-117.5
3.8990,-101.3
3.8995,-68.06
3.9000,-26.86
3.9005,17.09
3.9010,65.61
3.9015,103.8
3.9020,104.7
3.9025,65.31
3.9030,12.82
3.9035,-34.79
3.9040,-91.26
3.9045,-154.7
3.9050,-177.3
3.9055,-116.3
3.9060,-2.749
3.9065,90.34
3.9070,139.2
3.9075,174
3.9080,203.3
3.9085,188.6
3.9090,113.5
3.9095,25.02
3.9100,-23.5
3.9105,-31.74
3.9110,-23.81
3.9115,-8.242
3.9120,10.98
3.9125,21.97
3.9130,35.71
3.9135,96.13
3.9140,205.4
3.9145,287.5
3.9150,282.3
3.9155,233.5
3.9160,216.7
3.9165,215.8
3.9170,159.9
3.9175,63.78
3.9180,30.82
3.9185,114.1
3.9190,263.7
3.9195,423.6
3.9200,587.5
3.9205,725.4
3.9210,762.7
3.9215,685.2
3.9220,580.5
3.9225,502.3
3.9230,365.6
3.9235,63.17
3.9240,-350.7
3.9245,-683.3
3.9250,-802.4
3.9255,-749.3
3.9260,-654.6
3.9265,-595.7
3.9270,-555.5
3.9275,-488.9
3.9280,-390.7
3.9285,-291.5
3.9290,-208.4
3.9295,-124.2
3.9300,-31.13
3.9305,44.86
3.9310,95.22
3.9315,170.6
3.9320,317.7
3.9325,495.6
3.9330,613.7
3.9335,638.8
3.9340,602.5
3.9345,511.5
3.9350,332.7
3.9355,74.47
3.9360,-195
3.9365,-419.6
3.9370,-580.5
3.9375,-649.2
3.9380,-602.5
3.9385,-493.2
3.9390,-412
3.9395,-361.4
3.9400,-264.9
3.9405,-129.1
3.9410,-72.64
3.9415,-143.7
3.9420,-223.4
3.9425,-199.6
3.9430,-124.2
3.9435,-97.36
3.9440,-96.75
3.9445,-46.39
3.9450,20.45
3.9455,30.52
3.9460,41.81
3.9465,181.9
3.9470,410.5
3.9475,509.4
3.9480,358.9
3.9485,93.39
3.9490,-84.24
3.9495,-131.8
3.9500,-136.1
3.9505,-143.4
3.9510,-117.5
3.9515,-33.88
3.9520,71.41
3.9525,151.7
3.9530,190.4
3.9535,198.7
3.9540,195.3
3.9545,192.3
3.9550,186.2
3.9555,165.1
3.9560,132.5
3.9565,115.1
3.9570,135.8
3.9575,187.4
3.9580,231.3
3.9585,223.7
3.9590,155.3
3.9595,78.74
3.9600,73.85
3.9605,161.4
3.9610,268
3.9615,297.3
3.9620,222.5
3.9625,87.28
3.9630,-61.04
3.9635,-200.2
3.9640,-307.6
3.9645,-365.6
3.9650,-381.8
3.9655,-361.7
3.9660,-271.6
3.9665,-80.88
3.9670,157.2
3.9675,328.7
3.9680,376.9
3.9685,350.7
3.9690,316.5
3.9695,269.2
3.9700,168.8
3.9705,25.94
3.9710,-93.39
3.9715,-137.3
3.9720,-108.7
3.9725,-48.22
3.9730,1.219
3.9735,18.92
3.9740,15.26
3.9745,14.34
3.9750,20.45
3.9755,11.9
3.9760,-28.39
3.9765,-86.68
3.9770,-131.2
3.9775,-143.7
3.9780,-128.8
3.9785,-99.8
3.9790,-72.64
3.9795,-58.29
3.9800,-57.38
3.9805,-59.21
3.9810,-57.68
3.9815,-59.52
3.9820,-70.81
3.9825,-84.54
3.9830,-89.42
3.9835,-86.07
3.9840,-83.02
3.9845,-79.96
3.9850,-68.98
3.9855,-49.44
3.9860,-30.83
3.9865,-20.14
3.9870,-14.04
3.9875,-7.937
3.9880,-2.749
3.9885,-1.528
3.9890,-1.833
3.9895,-0.002135
3.9900,3.965
3.9905,6.407
3.9910,5.491
3.9915,4.576
3.9920,5.186
3.9925,5.491
3.9930,4.271
3.9935,2.745
3.9940,3.355
3.9945,5.491
3.9950,6.407
3.9955,6.712
3.9960,7.323
3.9965,7.323
3.9970,5.797
3.9975,4.271
3.9980,4.271
3.9985,3.66
3.9990,1.219
3.9995,-0.002135
4.0000,1.219
4.0005,0.6083
4.0010,-5.19
4.0015,-11.29
4.0020,-10.38
4.0025,-6.411
4.0030,-4.58
4.0035,1.219
4.0040,16.48
4.0045,25.33
4.0050,8.849
4.0055,-23.2
4.0060,-42.73
4.0065,-42.12
4.0070,-40.59
4.0075,-41.81
4.0080,-20.45
4.0085,31.43
4.0090,79.35
4.0095,97.66
4.0100,112.3
4.0105,158.7
4.0110,215.8
4.0115,224.9
4.0120,169.1
4.0125,86.37
4.0130,13.12
4.0135,-45.48
4.0140,-85.15
4.0145,-88.2
4.0150,-60.13
4.0155,-36.32
4.0160,-32.66
4.0165,-18.92
4.0170,23.19
4.0175,54.63
4.0180,21.97
4.0185,-65.62
4.0190,-151.7
4.0195,-206.3
4.0200,-246.6
4.0205,-281.7
4.0210,-287.2
4.0215,-247.5
4.0220,-187.1
4.0225,-136.1
4.0230,-96.44
4.0235,-57.99
4.0240,-27.16
4.0245,-10.07
4.0250,7.017
4.0255,36.32
4.0260,60.73
4.0265,61.34
4.0270,50.05
4.0275,54.93
4.0280,74.77
4.0285,81.18
4.0290,57.37
4.0295,14.65
4.0300,-27.47
4.0305,-54.63
4.0310,-55.55
4.0315,-35.4
4.0320,-21.37
4.0325,-35.1
4.0330,-60.74
4.0335,-64.4
4.0340,-41.81
4.0345,-17.09
4.0350,-1.528
4.0355,17.7
4.0360,47
4.0365,67.45
4.0370,67.45
4.0375,63.48
4.0380,75.38
4.0385,95.22
4.0390,99.19
4.0395,83.01
4.0400,63.48
4.0405,51.58
4.0410,35.4
4.0415,5.491
4.0420,-19.53
4.0425,-9.463
4.0430,31.43
4.0435,61.04
4.0440,56.15
4.0445,56.76
4.0450,114.8
4.0455,206.9
4.0460,245.1
4.0465,181
4.0470,67.45
4.0475,-12.52
4.0480,-39.07
4.0485,-48.53
4.0490,-60.74
4.0495,-63.18
4.0500,-50.66
4.0505,-39.98
4.0510,-39.98
4.0515,-40.29
4.0520,-39.98
4.0525,-56.77
4.0530,-96.75
4.0535,-133.7
4.0540,-140.4
4.0545,-120.6
4.0550,-96.75
4.0555,-76.61
4.0560,-49.75
4.0565,-13.43
4.0570,21.36
4.0575,45.17
4.0580,59.51
4.0585,68.06
4.0590,68.67
4.0595,61.95
4.0600,54.32
4.0605,51.27
4.0610,47.61
4.0615,35.71
4.0620,20.45
4.0625,14.65
4.0630,21.36
4.0635,29.3
4.0640,26.24
4.0645,13.43
4.0650,-0.9177
4.0655,-12.52
4.0660,-22.28
4.0665,-30.52
4.0670,-33.88
4.0675,-28.39
4.0680,-14.96
4.0685,0.6083
4.0690,11.9
4.0695,17.39
4.0700,21.36
4.0705,28.99
4.0710,36.32
4.0715,36.01
4.0720,28.38
4.0725,21.67
4.0730,21.36
4.0735,24.41
4.0740,29.91
4.0745,44.25
4.0750,70.5
4.0755,94.91
4.0760,97.35
4.0765,70.5
4.0770,27.77
4.0775,-12.21
4.0780,-40.29
4.0785,-53.11
4.0790,-51.58
4.0795,-41.81
4.0800,-32.05
4.0805,-25.94
4.0810,-18.62
4.0815,-6.411
4.0820,3.965
4.0825,6.407
4.0830,1.219
4.0835,-5.19
4.0840,-10.99
4.0845,-14.96
4.0850,-14.96
4.0855,-8.853
4.0860,1.829
4.0865,13.12
4.0870,22.28
4.0875,25.63
4.0880,19.53
4.0885,6.102
4.0890,-6.106
4.0895,-11.29
4.0900,-10.38
4.0905,-10.07
4.0910,-14.65
4.0915,-25.94
4.0920,-43.34
4.0925,-59.52
4.0930,-62.87
4.0935,-47
4.0940,-21.67
4.0945,-3.97
4.0950,-5.19
4.0955,-22.28
4.0960,-39.98
4.0965,-43.03
4.0970,-28.08
4.0975,-6.106
4.0980,9.764
4.0985,17.09
4.0990,16.78
4.0995,9.154
4.1000,-3.97
4.1005,-14.65
4.1010,-19.84
4.1015,-28.39
4.1020,-43.03
4.1025,-44.87
4.1030,-16.18
4.1035,23.5
4.1040,36.32
4.1045,14.34
4.1050,-10.99
4.1055,-18.31
4.1060,-18.01
4.1065,-22.89
4.1070,-20.14
4.1075,2.439
4.1080,34.18
4.1085,56.46
4.1090,72.63
4.1095,89.73
4.1100,96.44
4.1105,79.04
4.1110,50.05
4.1115,34.18
4.1120,28.69
4.1125,6.712
4.1130,-38.15
4.1135,-76.91
4.1140,-78.13
4.1145,-47.61
4.1150,-15.87
4.1155,-1.528
4.1160,-0.3073
4.1165,0.9134
4.1170,4.881
4.1175,4.881
4.1180,-2.444
4.1185,-12.21
4.1190,-15.26
4.1195,-9.463
4.1200,-1.833
4.1205,-1.223
4.1210,-10.07
4.1215,-23.2
4.1220,-32.66
4.1225,-33.88
4.1230,-31.44
4.1235,-32.96
4.1240,-41.51
4.1245,-48.83
4.1250,-44.56
4.1255,-24.42
4.1260,6.407
4.1265,40.28
4.1270,67.14
4.1275,79.04
4.1280,77.52
4.1285,74.47
4.1290,79.35
4.1295,89.11
4.1300,97.97
4.1305,107.7
4.1310,120.5
4.1315,125.4
4.1320,107.4
4.1325,70.8
4.1330,32.96
4.1335,-0.3073
4.1340,-35.71
4.1345,-65.92
4.1350,-73.55
4.1355,-63.79
4.1360,-68.67
4.1365,-102.2
4.1370,-132.8
4.1375,-125.1
4.1380,-86.68
4.1385,-52.19
4.1390,-38.15
4.1395,-39.68
4.1400,-56.46
4.1405,-86.68
4.1410,-108.3
4.1415,-97.05
4.1420,-66.23
4.1425,-48.53
4.1430,-41.2
4.1435,-4.885
4.1440,72.33
4.1445,139.2
4.1450,136.4
4.1455,64.09
4.1460,-24.42
4.1465,-87.9
4.1470,-124.5
4.1475,-153.8
4.1480,-179.2
4.1485,-184.9
4.1490,-159
4.1495,-110.5
4.1500,-64.09
4.1505,-32.05
4.1510,-3.97
4.1515,32.04
4.1520,67.45
4.1525,84.23
4.1530,83.62
4.1535,85.15
4.1540,96.13
4.1545,102.2
4.1550,96.44
4.1555,92.47
4.1560,101.9
4.1565,114.8
4.1570,114.1
4.1575,100.7
4.1580,87.89
4.1585,78.13
4.1590,60.43
4.1595,31.43
4.1600,2.439
4.1605,-14.96
4.1610,-21.67
4.1615,-22.89
4.1620,-21.37
4.1625,-17.4
4.1630,-17.09
4.1635,-25.03
4.1640,-39.68
4.1645,-52.8
4.1650,-59.21
4.1655,-59.52
4.1660,-53.41
4.1665,-37.85
4.1670,-12.21
4.1675,15.26
4.1680,35.1
4.1685,41.81
4.1690,38.76
4.1695,31.74
4.1700,26.24
4.1705,22.28
4.1710,17.09
4.1715,6.102
4.1720,-9.158
4.1725,-22.89
4.1730,-31.13
4.1735,-34.79
4.1740,-35.4
4.1745,-29.91
4.1750,-14.96
4.1755,4.576
4.1760,21.67
4.1765,33.26
4.1770,40.89
4.1775,45.47
4.1780,48.22
4.1785,50.35
4.1790,53.41
4.1795,54.32
4.1800,51.88
4.1805,48.83
4.1810,47.3
4.1815,41.81
4.1820,24.41
4.1825,-3.359
4.1830,-30.52
4.1835,-46.39
4.1840,-48.83
4.1845,-41.2
4.1850,-27.16
4.1855,-10.99
4.1860,3.965
4.1865,16.78
4.1870,27.16
4.1875,32.35
4.1880,30.21
4.1885,22.89
4.1890,17.09
4.1895,18
4.1900,21.67
4.1905,21.06
4.1910,15.56
4.1915,11.9
4.1920,17.39
4.1925,29.91
4.1930,39.98
4.1935,37.84
4.1940,21.97
4.1945,1.829
4.1950,-12.21
4.1955,-18.31
4.1960,-19.23
4.1965,-17.09
4.1970,-10.38
4.1975,-0.002135
4.1980,6.407
4.1985,3.66
4.1990,-3.97
4.1995,-10.99
4.2000,-23.81
4.2005,-52.8
4.2010,-86.37
4.2015,-97.05
4.2020,-72.03
4.2025,-30.22
4.2030,3.355
4.2035,26.85
4.2040,46.69
4.2045,58.6
4.2050,56.76
4.2055,52.19
4.2060,54.63
4.2065,50.35
4.2070,28.08
4.2075,15.26
4.2080,56.15
4.2085,149.8
4.2090,239.3
4.2095,275
4.2100,258.8
4.2105,215.8
4.2110,152
4.2115,62.26
4.2120,-39.98
4.2125,-127.3
4.2130,-185.3
4.2135,-220.4
4.2140,-238.7
4.2145,-233.8
4.2150,-197.8
4.2155,-143.4
4.2160,-101.6
4.2165,-95.83
4.2170,-115.1
4.2175,-133.4
4.2180,-152.6
4.2185,-200.2
4.2190,-272.2
4.2195,-309.8
4.2200,-267
4.2205,-175.8
4.2210,-111.1
4.2215,-98.58
4.2220,-103.8
4.2225,-97.36
4.2230,-91.56
4.2235,-95.83
4.2240,-90.34
4.2245,-57.99
4.2250,-11.6
4.2255,26.55
4.2260,58.6
4.2265,92.47
4.2270,121.5
4.2275,135.8
4.2280,145.9
4.2285,170.6
4.2290,203.3
4.2295,212.1
4.2300,181
4.2305,136.1
4.2310,121.8
4.2315,144.7
4.2320,160.8
4.2325,126.7
4.2330,55.85
4.2335,-0.002135
4.2340,-15.57
4.2345,-13.43
4.2350,-19.84
4.2355,-31.74
4.2360,-36.63
4.2365,-31.44
4.2370,-13.74
4.2375,18.31
4.2380,44.56
4.2385,32.65
4.2390,-8.242
4.2395,-26.25
4.2400,5.491
4.2405,48.83
4.2410,57.07
4.2415,37.54
4.2420,23.5
4.2425,19.23
4.2430,3.355
4.2435,-29.3
4.2440,-72.33
4.2445,-124.8
4.2450,-176.1
4.2455,-195
4.2460,-167.2
4.2465,-125.4
4.2470,-101.3
4.2475,-75.08
4.2480,-17.4
4.2485,43.34
4.2490,43.95
4.2495,-28.08
4.2500,-116.6
4.2505,-165.7
4.2510,-170.3
4.2515,-154.4
4.2520,-134.6
4.2525,-115.4
4.2530,-92.78
4.2535,-50.36
4.2540,26.24
4.2545,124.2
4.2550,205.1
4.2555,241.7
4.2560,240.5
4.2565,226.8
4.2570,212.1
4.2575,188.9
4.2580,149.5
4.2585,108
4.2590,92.17
4.2595,114.1
4.2600,150.5
4.2605,167.9
4.2610,159
4.2615,141.6
4.2620,125.7
4.2625,105.3
4.2630,79.96
4.2635,61.65
4.2640,55.54
4.2645,51.27
4.2650,43.03
4.2655,37.54
4.2660,37.84
4.2665,33.87
4.2670,24.72
4.2675,24.11
4.2680,35.1
4.2685,43.03
4.2690,39.67
4.2695,36.62
4.2700,39.98
4.2705,35.71
4.2710,20.14
4.2715,24.72
4.2720,77.82
4.2725,153.2
4.2730,191.4
4.2735,164.8
4.2740,107.1
4.2745,62.56
4.2750,35.4
4.2755,-1.223
4.2760,-62.26
4.2765,-129.1
4.2770,-176.1
4.2775,-198.7
4.2780,-211.5
4.2785,-219.4
4.2790,-211.5
4.2795,-183.4
4.2800,-151.7
4.2805,-134
4.2810,-125.4
4.2815,-113.5
4.2820,-109.6
4.2825,-134.6
4.2830,-176.4
4.2835,-187.7
4.2840,-143.1
4.2845,-73.55
4.2850,-27.47
4.2855,-15.87
4.2860,-11.9
4.2865,7.933
4.2870,47
4.2875,92.17
4.2880,123.9
4.2885,124.2
4.2890,92.17
4.2895,43.03
4.2900,-9.463
4.2905,-61.04
4.2910,-100.4
4.2915,-109.3
4.2920,-89.42
4.2925,-67.14
4.2930,-54.33
4.2935,-32.66
4.2940,4.881
4.2945,37.54
4.2950,62.56
4.2955,127.9
4.2960,261.9
4.2965,399.5
4.2970,442.5
4.2975,381.8
4.2980,293.9
4.2985,220.7
4.2990,126.3
4.2995,-4.885
4.3000,-112.6
4.3005,-143.1
4.3010,-135.2
4.3015,-155.7
4.3020,-195.9
4.3025,-193.8
4.3030,-144.1
4.3035,-108.7
4.3040,-124.5
4.3045,-158.4
4.3050,-169.7
4.3055,-172.7
4.3060,-206.9
4.3065,-275.6
4.3070,-341.5
4.3075,-368.4
4.3080,-344.9
4.3085,-284.1
4.3090,-211.5
4.3095,-150.8
4.3100,-114.1
4.3105,-99.8
4.3110,-95.22
4.3115,-80.57
4.3120,-40.59
4.3125,14.04
4.3130,49.44
4.3135,47.3
4.3140,30.52
4.3145,28.99
4.3150,36.93
4.3155,26.85
4.3160,-3.054
4.3165,-28.69
4.3170,-33.88
4.3175,-22.89
4.3180,-6.106
4.3185,2.134
4.3190,-14.04
4.3195,-47.92
4.3200,-63.18
4.3205,-37.24
4.3210,3.66
4.3215,35.4
4.3220,82.71
4.3225,176.1
4.3230,276.8
4.3235,313.4
4.3240,279.9
4.3245,236.5
4.3250,212.4
4.3255,171.2
4.3260,90.34
4.3265,5.797
4.3270,-43.34
4.3275,-65.01
4.3280,-76
4.3285,-64.7
4.3290,-13.74
4.3295,63.78
4.3300,139.8
4.3305,199
4.3310,236.5
4.3315,249.3
4.3320,236.8
4.3325,198.4
4.3330,134.6
4.3335,65
4.3340,32.96
4.3345,65.31
4.3350,136.7
4.3355,195.3
4.3360,215.5
4.3365,202
4.3370,165.1
4.3375,117.8
4.3380,78.13
4.3385,47.61
4.3390,11.9
4.3395,-21.37
4.3400,-25.94
4.3405,-14.96
4.3410,-45.17
4.3415,-125.1
4.3420,-174.6
4.3425,-134
4.3430,-53.41
4.3435,-10.07
4.3440,6.407
4.3445,47.91
4.3450,92.17
4.3455,87.59
4.3460,77.52
4.3465,160.8
4.3470,325
4.3475,422.4
4.3480,346.4
4.3485,158.1
4.3490,-0.6125
4.3495,-63.18
4.3500,-73.55
4.3505,-105.9
4.3510,-184.9
4.3515,-275.9
4.3520,-332.4
4.3525,-347.9
4.3530,-352.5
4.3535,-361.7
4.3540,-347.3
4.3545,-285.4
4.3550,-193.5
4.3555,-113.5
4.3560,-73.25
4.3565,-92.48
4.3570,-177
4.3575,-281.1
4.3580,-316.5
4.3585,-246.6
4.3590,-136.1
4.3595,-68.06
4.3600,-45.17
4.3605,-16.18
4.3610,30.21
4.3615,59.21
4.3620,58.29
4.3625,52.49
4.3630,55.54
4.3635,55.85
4.3640,52.19
4.3645,59.51
4.3650,74.47
4.3655,73.85
4.3660,54.93
4.3665,41.5
4.3670,43.34
4.3675,39.06
4.3680,15.56
4.3685,-5.801
4.3690,1.219
4.3695,34.48
4.3700,64.39
4.3705,70.19
4.3710,57.68
4.3715,46.08
4.3720,48.83
4.3725,60.43
4.3730,63.78
4.3735,46.39
4.3740,15.26
4.3745,-5.801
4.3750,4.271
4.3755,42.73
4.3760,77.21
4.3765,79.35
4.3770,61.65
4.3775,68.97
4.3780,117.8
4.3785,161.1
4.3790,140.4
4.3795,61.04
4.3800,-8.548
4.3805,-17.4
4.3810,18
4.3815,49.13
4.3820,52.8
4.3825,39.98
4.3830,26.24
4.3835,15.56
4.3840,-0.9177
4.3845,-41.2
4.3850,-117.8
4.3855,-215.2
4.3860,-291.2
4.3865,-315
4.3870,-297
4.3875,-269.8
4.3880,-251.5
4.3885,-230.4
4.3890,-176.4
4.3895,-67.45
4.3900,76.6
4.3905,187.1
4.3910,196.2
4.3915,115.1
4.3920,32.65
4.3925,20.45
4.3930,64.39
4.3935,105.6
4.3940,126.3
4.3945,158.7
4.3950,217.3
4.3955,268
4.3960,262.5
4.3965,198.4
4.3970,126
4.3975,103.5
4.3980,144.4
4.3985,202
4.3990,213
4.3995,146.5
4.4000,24.41
4.4005,-100.1
4.4010,-172.7
4.4015,-171.8
4.4020,-139.2
4.4025,-152.3
4.4030,-235.6
4.4035,-318.6
4.4040,-320.2
4.4045,-258.2
4.4050,-217.6
4.4055,-217.3
4.4060,-187.4
4.4065,-89.42
4.4070,14.04
4.4075,46.08
4.4080,13.12
4.4085,-24.11
4.4090,-38.76
4.4095,-41.51
4.4100,-36.32
4.4105,-18.31
4.4110,-3.664
4.4115,-15.26
4.4120,-43.64
4.4125,-54.02
4.4130,-32.66
4.4135,0.6083
4.4140,27.47
4.4145,47.91
4.4150,64.39
4.4155,65.61
4.4160,39.98
4.4165,-0.6125
4.4170,-26.55
4.4175,-17.4
4.4180,18.61
4.4185,61.65
