MR32 CSV
Name,EMG 1 channel recording 1-3
Frequency,2000
Date,25-03-2022 10:33:07
"Time,s","VMO RT,uV"
0.0000,0.9134
0.0005,0.3031
0.0010,-0.002135
0.0015,-0.3073
0.0020,-0.6125
0.0025,-0.6125
0.0030,-0.6125
0.0035,-0.3073
0.0040,-0.002135
0.0045,1.219
0.0050,1.524
0.0055,0.6083
0.0060,-0.002135
0.0065,0.3031
0.0070,1.524
0.0075,1.524
0.0080,0.9134
0.0085,0.6083
0.0090,1.219
0.0095,0.9134
0.0100,-0.3073
0.0105,-1.223
0.0110,-0.6125
0.0115,-0.002135
0.0120,-0.002135
0.0125,-0.3073
0.0130,0.3031
0.0135,0.9134
0.0140,0.3031
0.0145,-0.3073
0.0150,0.3031
0.0155,1.524
0.0160,1.524
0.0165,-0.002135
0.0170,-1.223
0.0175,-1.223
0.0180,-0.6125
0.0185,-0.3073
0.0190,-0.6125
0.0195,-0.9177
0.0200,-0.3073
0.0205,-0.002135
0.0210,-0.002135
0.0215,-0.002135
0.0220,-0.002135
0.0225,-0.002135
0.0230,-0.3073
0.0235,-1.528
0.0240,-1.528
0.0245,-0.3073
0.0250,0.9134
0.0255,0.3031
0.0260,-1.223
0.0265,-1.833
0.0270,-0.6125
0.0275,-0.3073
0.0280,-1.528
0.0285,-2.444
0.0290,-1.833
0.0295,-0.9177
0.0300,-0.9177
0.0305,-1.223
0.0310,-0.6125
0.0315,-0.002135
0.0320,-0.002135
0.0325,-0.3073
0.0330,-0.3073
0.0335,-0.002135
0.0340,-0.002135
0.0345,-0.3073
0.0350,-0.3073
0.0355,-0.002135
0.0360,-0.3073
0.0365,-0.6125
0.0370,-0.6125
0.0375,-0.3073
0.0380,-0.3073
0.0385,-0.6125
0.0390,-0.9177
0.0395,-0.9177
0.0400,-0.6125
0.0405,-0.002135
0.0410,-0.002135
0.0415,-0.002135
0.0420,-0.6125
0.0425,-0.3073
0.0430,0.6083
0.0435,1.829
0.0440,0.9134
0.0445,-0.3073
0.0450,-0.6125
0.0455,0.6083
0.0460,1.829
0.0465,1.219
0.0470,-0.3073
0.0475,-0.9177
0.0480,-0.3073
0.0485,-0.002135
0.0490,-0.3073
0.0495,-0.6125
0.0500,-0.6125
0.0505,-0.6125
0.0510,-0.9177
0.0515,-0.9177
0.0520,-0.3073
0.0525,-0.3073
0.0530,-1.223
0.0535,-1.528
0.0540,-0.002135
0.0545,2.134
0.0550,2.745
0.0555,1.219
0.0560,-0.002135
0.0565,-0.002135
0.0570,0.9134
0.0575,0.6083
0.0580,0.3031
0.0585,0.6083
0.0590,1.524
0.0595,1.524
0.0600,1.219
0.0605,0.9134
0.0610,1.219
0.0615,1.524
0.0620,1.524
0.0625,0.9134
0.0630,0.3031
0.0635,-0.002135
0.0640,0.3031
0.0645,1.219
0.0650,1.219
0.0655,0.3031
0.0660,-0.3073
0.0665,-0.3073
0.0670,-0.002135
0.0675,0.6083
0.0680,0.9134
0.0685,0.6083
0.0690,0.6083
0.0695,0.9134
0.0700,1.829
0.0705,2.439
0.0710,1.524
0.0715,-0.002135
0.0720,-0.002135
0.0725,-0.002135
0.0730,-0.002135
0.0735,-1.223
0.0740,-2.138
0.0745,-1.528
0.0750,-0.6125
0.0755,-0.9177
0.0760,-1.528
0.0765,-1.528
0.0770,-0.9177
0.0775,-0.002135
0.0780,0.6083
0.0785,1.219
0.0790,1.524
0.0795,1.219
0.0800,0.6083
0.0805,0.6083
0.0810,1.219
0.0815,1.524
0.0820,0.3031
0.0825,-0.9177
0.0830,-1.528
0.0835,-0.002135
0.0840,0.9134
0.0845,0.9134
0.0850,0.6083
0.0855,0.3031
0.0860,0.3031
0.0865,-0.002135
0.0870,-0.3073
0.0875,-0.002135
0.0880,0.3031
0.0885,-0.002135
0.0890,-0.3073
0.0895,0.3031
0.0900,0.9134
0.0905,-0.002135
0.0910,-1.223
0.0915,-0.9177
0.0920,-0.002135
0.0925,0.6083
0.0930,-0.002135
0.0935,-1.223
0.0940,-0.9177
0.0945,-0.3073
0.0950,-0.6125
0.0955,-0.9177
0.0960,-0.3073
0.0965,0.3031
0.0970,0.9134
0.0975,0.6083
0.0980,0.3031
0.0985,0.3031
0.0990,0.3031
0.0995,-0.3073
0.1000,-1.223
0.1005,-1.833
0.1010,-1.223
0.1015,-0.6125
0.1020,-0.6125
0.1025,-0.6125
0.1030,-0.6125
0.1035,-0.002135
0.1040,-0.002135
0.1045,-0.9177
0.1050,-1.223
0.1055,-1.223
0.1060,-1.223
0.1065,-1.223
0.1070,-0.6125
0.1075,-0.002135
0.1080,-0.002135
0.1085,-1.223
0.1090,-2.444
0.1095,-1.833
0.1100,-0.3073
0.1105,-0.3073
0.1110,-0.3073
0.1115,-0.002135
0.1120,0.3031
0.1125,-0.002135
0.1130,-0.002135
0.1135,-0.002135
0.1140,0.3031
0.1145,-0.6125
0.1150,-2.138
0.1155,-1.833
0.1160,-0.002135
0.1165,0.6083
0.1170,0.3031
0.1175,-0.002135
0.1180,-0.002135
0.1185,0.9134
0.1190,0.9134
0.1195,0.6083
0.1200,-0.002135
0.1205,-0.6125
0.1210,-0.3073
0.1215,-0.002135
0.1220,-0.002135
0.1225,-0.9177
0.1230,-1.223
0.1235,-0.002135
0.1240,0.9134
0.1245,1.219
0.1250,1.219
0.1255,0.9134
0.1260,0.6083
0.1265,-0.002135
0.1270,0.3031
0.1275,1.524
0.1280,2.134
0.1285,1.219
0.1290,0.6083
0.1295,0.6083
0.1300,0.6083
0.1305,-0.002135
0.1310,-0.002135
0.1315,0.6083
0.1320,1.524
0.1325,1.219
0.1330,0.9134
0.1335,0.9134
0.1340,1.219
0.1345,0.3031
0.1350,-0.002135
0.1355,0.6083
0.1360,1.219
0.1365,0.9134
0.1370,-0.002135
0.1375,-0.3073
0.1380,-0.002135
0.1385,0.9134
0.1390,0.9134
0.1395,0.6083
0.1400,-0.002135
0.1405,-0.002135
0.1410,0.3031
0.1415,0.6083
0.1420,-0.002135
0.1425,-0.6125
0.1430,-0.9177
0.1435,-0.9177
0.1440,-1.833
0.1445,-2.749
0.1450,-2.444
0.1455,-0.6125
0.1460,0.6083
0.1465,0.6083
0.1470,-0.002135
0.1475,-0.9177
0.1480,-1.833
0.1485,-2.749
0.1490,-2.444
0.1495,-0.3073
0.1500,1.524
0.1505,1.524
0.1510,-0.002135
0.1515,-0.9177
0.1520,-0.6125
0.1525,-0.002135
0.1530,0.3031
0.1535,-0.002135
0.1540,-0.002135
0.1545,-0.6125
0.1550,-1.223
0.1555,-0.9177
0.1560,-1.223
0.1565,-1.833
0.1570,-2.138
0.1575,-0.9177
0.1580,0.3031
0.1585,0.9134
0.1590,0.6083
0.1595,0.9134
0.1600,1.524
0.1605,1.219
0.1610,-0.6125
0.1615,-2.138
0.1620,-1.223
0.1625,0.9134
0.1630,1.829
0.1635,0.9134
0.1640,-0.3073
0.1645,-0.3073
0.1650,-0.002135
0.1655,0.3031
0.1660,0.3031
0.1665,0.6083
0.1670,0.9134
0.1675,0.9134
0.1680,0.6083
0.1685,-0.002135
0.1690,-0.3073
0.1695,-0.6125
0.1700,-0.3073
0.1705,0.3031
0.1710,1.219
0.1715,0.9134
0.1720,0.6083
0.1725,0.6083
0.1730,0.6083
0.1735,-0.002135
0.1740,-0.002135
0.1745,-0.002135
0.1750,-0.002135
0.1755,-0.3073
0.1760,-0.3073
0.1765,0.6083
0.1770,1.524
0.1775,1.219
0.1780,0.9134
0.1785,0.9134
0.1790,1.219
0.1795,0.9134
0.1800,-0.002135
0.1805,-0.002135
0.1810,0.9134
0.1815,2.134
0.1820,2.134
0.1825,1.524
0.1830,0.6083
0.1835,0.3031
0.1840,-0.002135
0.1845,-0.002135
0.1850,-0.3073
0.1855,-0.6125
0.1860,-0.3073
0.1865,-0.002135
0.1870,0.3031
0.1875,0.3031
0.1880,-0.3073
0.1885,-0.6125
0.1890,-0.3073
0.1895,0.3031
0.1900,0.9134
0.1905,0.9134
0.1910,0.9134
0.1915,1.219
0.1920,0.9134
0.1925,0.3031
0.1930,-0.002135
0.1935,0.6083
0.1940,1.219
0.1945,0.6083
0.1950,-0.002135
0.1955,-0.3073
0.1960,-0.002135
0.1965,-0.002135
0.1970,-0.6125
0.1975,-0.9177
0.1980,-0.3073
0.1985,0.3031
0.1990,0.3031
0.1995,-0.002135
0.2000,-0.6125
0.2005,-1.223
0.2010,-1.223
0.2015,-0.002135
0.2020,1.219
0.2025,0.9134
0.2030,-0.3073
0.2035,-1.528
0.2040,-0.6125
0.2045,0.6083
0.2050,0.9134
0.2055,-0.002135
0.2060,-0.3073
0.2065,-0.3073
0.2070,-0.9177
0.2075,-1.528
0.2080,-1.528
0.2085,-1.223
0.2090,-1.528
0.2095,-2.444
0.2100,-2.138
0.2105,-0.6125
0.2110,-0.002135
0.2115,-0.6125
0.2120,-1.833
0.2125,-1.833
0.2130,-0.3073
0.2135,0.6083
0.2140,-0.002135
0.2145,-1.528
0.2150,-2.138
0.2155,-0.6125
0.2160,0.3031
0.2165,-0.002135
0.2170,-0.6125
0.2175,-0.9177
0.2180,-0.002135
0.2185,0.9134
0.2190,0.3031
0.2195,-0.9177
0.2200,-1.223
0.2205,-0.6125
0.2210,-0.3073
0.2215,-0.6125
0.2220,-1.223
0.2225,-1.833
0.2230,-1.528
0.2235,-0.6125
0.2240,-0.002135
0.2245,-0.3073
0.2250,-0.9177
0.2255,-0.6125
0.2260,0.3031
0.2265,0.9134
0.2270,-0.002135
0.2275,-0.3073
0.2280,-0.002135
0.2285,1.524
0.2290,1.524
0.2295,-0.002135
0.2300,-1.528
0.2305,-1.223
0.2310,-0.3073
0.2315,-0.002135
0.2320,-0.6125
0.2325,-0.3073
0.2330,0.3031
0.2335,-0.002135
0.2340,-1.223
0.2345,-2.138
0.2350,-1.223
0.2355,-0.002135
0.2360,0.3031
0.2365,-0.002135
0.2370,0.3031
0.2375,1.524
0.2380,2.134
0.2385,2.134
0.2390,2.439
0.2395,2.439
0.2400,0.9134
0.2405,-1.223
0.2410,-2.444
0.2415,-1.223
0.2420,0.3031
0.2425,0.6083
0.2430,0.6083
0.2435,0.6083
0.2440,0.6083
0.2445,0.3031
0.2450,-0.002135
0.2455,0.3031
0.2460,-0.002135
0.2465,-0.3073
0.2470,-0.002135
0.2475,0.9134
0.2480,1.219
0.2485,-0.002135
0.2490,-1.223
0.2495,-0.3073
0.2500,0.6083
0.2505,0.6083
0.2510,0.3031
0.2515,0.9134
0.2520,1.524
0.2525,1.219
0.2530,0.6083
0.2535,0.3031
0.2540,0.3031
0.2545,-0.002135
0.2550,-0.002135
0.2555,-0.002135
0.2560,0.3031
0.2565,-0.002135
0.2570,0.3031
0.2575,1.829
0.2580,2.745
0.2585,2.439
0.2590,1.524
0.2595,1.219
0.2600,1.524
0.2605,0.9134
0.2610,-0.002135
0.2615,-0.6125
0.2620,-0.3073
0.2625,-0.002135
0.2630,-0.002135
0.2635,-0.002135
0.2640,-0.002135
0.2645,-0.3073
0.2650,-0.3073
0.2655,0.3031
0.2660,0.6083
0.2665,0.3031
0.2670,-0.002135
0.2675,-0.6125
0.2680,-0.6125
0.2685,-0.002135
0.2690,0.6083
0.2695,1.829
0.2700,2.134
0.2705,1.829
0.2710,0.9134
0.2715,0.3031
0.2720,-0.002135
0.2725,-0.3073
0.2730,-0.002135
0.2735,0.3031
0.2740,-0.002135
0.2745,-0.3073
0.2750,-0.002135
0.2755,-0.002135
0.2760,-0.002135
0.2765,-0.9177
0.2770,-1.528
0.2775,-0.9177
0.2780,-0.6125
0.2785,-0.6125
0.2790,-0.6125
0.2795,-0.002135
0.2800,0.6083
0.2805,0.6083
0.2810,-0.002135
0.2815,-0.3073
0.2820,-0.6125
0.2825,-0.002135
0.2830,-0.002135
0.2835,-0.002135
0.2840,-0.002135
0.2845,-0.002135
0.2850,0.3031
0.2855,-0.002135
0.2860,-0.6125
0.2865,-0.3073
0.2870,0.6083
0.2875,0.9134
0.2880,-0.6125
0.2885,-2.749
0.2890,-2.444
0.2895,-0.9177
0.2900,-0.002135
0.2905,-0.3073
0.2910,-0.002135
0.2915,-0.002135
0.2920,-0.002135
0.2925,-1.528
0.2930,-2.138
0.2935,-1.528
0.2940,-0.6125
0.2945,-0.6125
0.2950,-0.9177
0.2955,-0.6125
0.2960,-0.3073
0.2965,-0.002135
0.2970,-0.002135
0.2975,0.3031
0.2980,0.3031
0.2985,-0.002135
0.2990,-0.3073
0.2995,-0.002135
0.3000,-0.002135
0.3005,-0.6125
0.3010,-0.6125
0.3015,-0.002135
0.3020,0.9134
0.3025,0.6083
0.3030,-0.002135
0.3035,-0.6125
0.3040,-0.002135
0.3045,0.9134
0.3050,0.9134
0.3055,-0.002135
0.3060,-0.002135
0.3065,0.3031
0.3070,-0.002135
0.3075,-0.6125
0.3080,-0.9177
0.3085,-0.3073
0.3090,0.6083
0.3095,1.219
0.3100,0.9134
0.3105,0.9134
0.3110,0.9134
0.3115,0.9134
0.3120,-0.002135
0.3125,-0.3073
0.3130,-0.3073
0.3135,-0.002135
0.3140,-0.002135
0.3145,-0.3073
0.3150,-0.6125
0.3155,-0.002135
0.3160,0.6083
0.3165,0.3031
0.3170,-0.9177
0.3175,-1.223
0.3180,-0.002135
0.3185,1.219
0.3190,1.219
0.3195,-0.002135
0.3200,-0.3073
0.3205,-0.3073
0.3210,-0.002135
0.3215,-0.002135
0.3220,-0.002135
0.3225,-0.3073
0.3230,-0.6125
0.3235,-0.6125
0.3240,-0.002135
0.3245,0.3031
0.3250,-0.002135
0.3255,-0.6125
0.3260,-0.9177
0.3265,-0.3073
0.3270,-0.002135
0.3275,-0.3073
0.3280,-0.6125
0.3285,-0.3073
0.3290,0.3031
0.3295,1.219
0.3300,0.6083
0.3305,-0.002135
0.3310,-0.002135
0.3315,1.219
0.3320,2.134
0.3325,1.219
0.3330,-0.002135
0.3335,-0.9177
0.3340,-0.9177
0.3345,-0.6125
0.3350,-0.9177
0.3355,-0.9177
0.3360,-0.6125
0.3365,-0.3073
0.3370,-0.002135
0.3375,-0.002135
0.3380,0.6083
0.3385,1.219
0.3390,0.9134
0.3395,0.3031
0.3400,-0.002135
0.3405,0.3031
0.3410,1.524
0.3415,2.134
0.3420,1.219
0.3425,-0.002135
0.3430,-0.6125
0.3435,-0.002135
0.3440,-0.002135
0.3445,-0.3073
0.3450,0.3031
0.3455,1.524
0.3460,1.219
0.3465,-0.6125
0.3470,-2.138
0.3475,-1.223
0.3480,-0.002135
0.3485,-0.6125
0.3490,-2.444
0.3495,-2.444
0.3500,-1.223
0.3505,-0.002135
0.3510,-0.002135
0.3515,-0.3073
0.3520,-1.223
0.3525,-1.528
0.3530,-1.223
0.3535,-0.6125
0.3540,-0.3073
0.3545,-0.3073
0.3550,-0.6125
0.3555,-0.9177
0.3560,-1.223
0.3565,-0.3073
0.3570,1.219
0.3575,2.134
0.3580,0.6083
0.3585,-2.138
0.3590,-2.749
0.3595,-0.6125
0.3600,0.9134
0.3605,0.6083
0.3610,-0.002135
0.3615,0.3031
0.3620,1.524
0.3625,1.524
0.3630,0.6083
0.3635,-0.002135
0.3640,-0.3073
0.3645,-0.3073
0.3650,-0.002135
0.3655,0.3031
0.3660,0.6083
0.3665,0.9134
0.3670,1.524
0.3675,2.134
0.3680,1.829
0.3685,0.9134
0.3690,0.6083
0.3695,1.524
0.3700,2.134
0.3705,1.524
0.3710,0.3031
0.3715,-0.002135
0.3720,-0.002135
0.3725,-0.3073
0.3730,-0.6125
0.3735,-0.6125
0.3740,-0.002135
0.3745,0.3031
0.3750,-0.002135
0.3755,-0.3073
0.3760,-0.3073
0.3765,0.6083
0.3770,2.134
0.3775,1.829
0.3780,0.3031
0.3785,-0.9177
0.3790,-0.9177
0.3795,-0.3073
0.3800,-0.002135
0.3805,0.3031
0.3810,0.3031
0.3815,0.3031
0.3820,0.3031
0.3825,0.3031
0.3830,-0.002135
0.3835,-0.3073
0.3840,-0.6125
0.3845,-0.002135
0.3850,0.9134
0.3855,0.6083
0.3860,-0.002135
0.3865,-0.3073
0.3870,-0.002135
0.3875,0.9134
0.3880,0.3031
0.3885,-0.3073
0.3890,-0.3073
0.3895,0.3031
0.3900,0.9134
0.3905,0.3031
0.3910,-0.002135
0.3915,-0.3073
0.3920,-0.6125
0.3925,-0.9177
0.3930,-0.9177
0.3935,-0.6125
0.3940,-0.3073
0.3945,-0.002135
0.3950,-0.002135
0.3955,-0.002135
0.3960,-0.6125
0.3965,-1.223
0.3970,-1.223
0.3975,-0.9177
0.3980,-0.3073
0.3985,-0.002135
0.3990,-0.002135
0.3995,-0.002135
0.4000,-0.002135
0.4005,-0.002135
0.4010,-0.3073
0.4015,-0.3073
0.4020,-0.002135
0.4025,-0.002135
0.4030,0.3031
0.4035,1.219
0.4040,2.134
0.4045,2.439
0.4050,1.524
0.4055,-0.002135
0.4060,-0.3073
0.4065,-0.3073
0.4070,-0.002135
0.4075,-0.002135
0.4080,-0.002135
0.4085,-0.002135
0.4090,0.3031
0.4095,0.3031
0.4100,-0.002135
0.4105,-0.002135
0.4110,-0.002135
0.4115,-0.002135
0.4120,-0.002135
0.4125,0.3031
0.4130,1.219
0.4135,1.219
0.4140,0.6083
0.4145,-0.002135
0.4150,-0.3073
0.4155,-0.6125
0.4160,-0.3073
0.4165,-0.002135
0.4170,-0.002135
0.4175,-0.3073
0.4180,-1.223
0.4185,-2.138
0.4190,-2.138
0.4195,-1.833
0.4200,-1.223
0.4205,-1.528
0.4210,-1.833
0.4215,-1.528
0.4220,-0.3073
0.4225,0.3031
0.4230,0.9134
0.4235,0.6083
0.4240,0.6083
0.4245,0.6083
0.4250,-0.002135
0.4255,-0.3073
0.4260,-0.002135
0.4265,0.6083
0.4270,0.9134
0.4275,0.9134
0.4280,0.9134
0.4285,0.9134
0.4290,0.3031
0.4295,-0.3073
0.4300,-0.9177
0.4305,-0.9177
0.4310,-1.223
0.4315,-1.528
0.4320,-0.6125
0.4325,-0.002135
0.4330,-0.002135
0.4335,-1.528
0.4340,-1.223
0.4345,-0.002135
0.4350,0.3031
0.4355,-1.223
0.4360,-1.833
0.4365,0.3031
0.4370,2.439
0.4375,1.219
0.4380,-1.528
0.4385,-1.528
0.4390,1.219
0.4395,2.134
0.4400,-0.002135
0.4405,-1.833
0.4410,-1.223
0.4415,0.3031
0.4420,0.6083
0.4425,-0.002135
0.4430,0.3031
0.4435,0.9134
0.4440,0.9134
0.4445,-0.002135
0.4450,-0.002135
0.4455,-0.002135
0.4460,-0.002135
0.4465,-0.9177
0.4470,-2.138
0.4475,-1.528
0.4480,-0.002135
0.4485,0.3031
0.4490,-0.002135
0.4495,-0.9177
0.4500,-1.223
0.4505,-0.6125
0.4510,-0.002135
0.4515,0.6083
0.4520,0.6083
0.4525,-0.002135
0.4530,-0.6125
0.4535,-0.3073
0.4540,-0.002135
0.4545,-0.002135
0.4550,-0.9177
0.4555,-1.528
0.4560,-0.9177
0.4565,-0.002135
0.4570,0.3031
0.4575,0.3031
0.4580,0.3031
0.4585,0.3031
0.4590,-0.002135
0.4595,0.3031
0.4600,0.3031
0.4605,0.3031
0.4610,-0.002135
0.4615,0.3031
0.4620,1.524
0.4625,2.134
0.4630,1.829
0.4635,0.6083
0.4640,0.6083
0.4645,0.9134
0.4650,0.9134
0.4655,0.3031
0.4660,-0.002135
0.4665,-0.002135
0.4670,-0.002135
0.4675,-0.3073
0.4680,-0.6125
0.4685,-0.3073
0.4690,-0.002135
0.4695,-0.002135
0.4700,0.3031
0.4705,0.9134
0.4710,0.9134
0.4715,0.3031
0.4720,-0.3073
0.4725,-0.6125
0.4730,-0.6125
0.4735,-0.9177
0.4740,-0.6125
0.4745,0.3031
0.4750,1.219
0.4755,1.219
0.4760,0.6083
0.4765,-0.3073
0.4770,-1.528
0.4775,-2.138
0.4780,-0.9177
0.4785,0.6083
0.4790,0.9134
0.4795,-0.6125
0.4800,-2.444
0.4805,-2.138
0.4810,-0.3073
0.4815,0.3031
0.4820,-0.002135
0.4825,0.6083
0.4830,1.524
0.4835,1.219
0.4840,-0.002135
0.4845,-0.9177
0.4850,-0.002135
0.4855,0.6083
0.4860,0.6083
0.4865,0.3031
0.4870,0.3031
0.4875,-0.002135
0.4880,-0.9177
0.4885,-0.6125
0.4890,0.6083
0.4895,1.829
0.4900,0.9134
0.4905,-0.6125
0.4910,-0.9177
0.4915,-0.002135
0.4920,0.6083
0.4925,0.3031
0.4930,-0.002135
0.4935,0.3031
0.4940,1.219
0.4945,1.219
0.4950,0.9134
0.4955,0.6083
0.4960,0.6083
0.4965,1.524
0.4970,1.829
0.4975,1.219
0.4980,0.3031
0.4985,0.3031
0.4990,0.6083
0.4995,0.6083
0.5000,0.3031
0.5005,0.9134
0.5010,2.439
0.5015,2.745
0.5020,1.219
0.5025,-0.3073
0.5030,-0.6125
0.5035,0.3031
0.5040,0.6083
0.5045,-0.3073
0.5050,-0.9177
0.5055,-0.002135
0.5060,0.3031
0.5065,-0.002135
0.5070,-0.3073
0.5075,-0.002135
0.5080,-0.002135
0.5085,-0.6125
0.5090,-1.833
0.5095,-2.138
0.5100,-1.528
0.5105,-0.9177
0.5110,-0.6125
0.5115,-0.002135
0.5120,0.3031
0.5125,0.3031
0.5130,-0.3073
0.5135,-1.223
0.5140,-1.223
0.5145,-1.223
0.5150,-1.223
0.5155,-1.223
0.5160,-0.002135
0.5165,0.6083
0.5170,0.6083
0.5175,0.3031
0.5180,0.6083
0.5185,1.524
0.5190,1.219
0.5195,-0.002135
0.5200,-0.6125
0.5205,-1.223
0.5210,-1.528
0.5215,-1.528
0.5220,-1.223
0.5225,-0.6125
0.5230,-0.6125
0.5235,-1.528
0.5240,-2.444
0.5245,-2.444
0.5250,-1.528
0.5255,-0.6125
0.5260,-0.002135
0.5265,0.3031
0.5270,-0.002135
0.5275,-0.6125
0.5280,-0.3073
0.5285,0.3031
0.5290,0.3031
0.5295,-0.3073
0.5300,-1.223
0.5305,-1.223
0.5310,-0.002135
0.5315,0.3031
0.5320,-0.002135
0.5325,-0.002135
0.5330,-0.002135
0.5335,-0.002135
0.5340,-0.002135
0.5345,-0.002135
0.5350,0.6083
0.5355,0.3031
0.5360,-0.002135
0.5365,-0.002135
0.5370,0.6083
0.5375,0.9134
0.5380,-0.002135
0.5385,-0.002135
0.5390,0.9134
0.5395,1.524
0.5400,0.3031
0.5405,-1.528
0.5410,-1.528
0.5415,-0.3073
0.5420,-0.002135
0.5425,-0.6125
0.5430,-0.3073
0.5435,0.9134
0.5440,1.524
0.5445,-0.002135
0.5450,-1.528
0.5455,-0.6125
0.5460,1.524
0.5465,2.745
0.5470,1.524
0.5475,-0.002135
0.5480,-0.002135
0.5485,-0.002135
0.5490,-0.002135
0.5495,-0.3073
0.5500,-0.002135
0.5505,-0.002135
0.5510,-0.3073
0.5515,-0.6125
0.5520,-0.002135
0.5525,0.9134
0.5530,0.3031
0.5535,-1.223
0.5540,-1.528
0.5545,-0.002135
0.5550,2.134
0.5555,2.134
0.5560,0.6083
0.5565,-0.002135
0.5570,0.6083
0.5575,1.524
0.5580,0.9134
0.5585,-0.002135
0.5590,-0.9177
0.5595,-0.9177
0.5600,-0.6125
0.5605,-0.9177
0.5610,-1.223
0.5615,-1.223
0.5620,-0.6125
0.5625,-0.3073
0.5630,-0.3073
0.5635,-0.9177
0.5640,-1.528
0.5645,-0.9177
0.5650,0.3031
0.5655,1.524
0.5660,1.829
0.5665,0.6083
0.5670,-0.3073
0.5675,-0.6125
0.5680,0.3031
0.5685,1.524
0.5690,1.524
0.5695,-0.002135
0.5700,-0.9177
0.5705,-0.6125
0.5710,0.3031
0.5715,0.3031
0.5720,-0.6125
0.5725,-1.223
0.5730,-0.3073
0.5735,0.3031
0.5740,0.3031
0.5745,-0.002135
0.5750,0.6083
0.5755,1.219
0.5760,0.6083
0.5765,-0.002135
0.5770,-0.002135
0.5775,0.3031
0.5780,1.219
0.5785,1.219
0.5790,0.9134
0.5795,-0.002135
0.5800,-0.9177
0.5805,-1.223
0.5810,-0.6125
0.5815,-0.002135
0.5820,-0.002135
0.5825,0.3031
0.5830,0.9134
0.5835,0.6083
0.5840,-0.002135
0.5845,-0.002135
0.5850,0.3031
0.5855,-0.002135
0.5860,-0.6125
0.5865,-0.002135
0.5870,1.219
0.5875,0.9134
0.5880,-0.6125
0.5885,-1.833
0.5890,-0.3073
0.5895,1.524
0.5900,1.524
0.5905,0.3031
0.5910,-0.002135
0.5915,1.219
0.5920,1.524
0.5925,0.9134
0.5930,0.9134
0.5935,0.9134
0.5940,0.3031
0.5945,-0.002135
0.5950,0.3031
0.5955,0.9134
0.5960,0.6083
0.5965,-0.002135
0.5970,0.3031
0.5975,0.3031
0.5980,-0.002135
0.5985,-0.9177
0.5990,-0.6125
0.5995,-0.002135
0.6000,-0.002135
0.6005,-0.9177
0.6010,-1.833
0.6015,-1.528
0.6020,-1.223
0.6025,-1.223
0.6030,-0.9177
0.6035,-0.6125
0.6040,-0.002135
0.6045,0.3031
0.6050,0.9134
0.6055,1.219
0.6060,1.219
0.6065,0.6083
0.6070,0.3031
0.6075,0.3031
0.6080,0.6083
0.6085,0.6083
0.6090,0.9134
0.6095,0.9134
0.6100,0.6083
0.6105,0.9134
0.6110,1.219
0.6115,0.9134
0.6120,-0.002135
0.6125,-1.223
0.6130,-0.9177
0.6135,-0.002135
0.6140,0.3031
0.6145,0.6083
0.6150,0.6083
0.6155,-0.002135
0.6160,-0.6125
0.6165,-1.223
0.6170,-0.3073
0.6175,-0.002135
0.6180,-0.6125
0.6185,-2.749
0.6190,-3.359
0.6195,-1.833
0.6200,-0.6125
0.6205,-0.9177
0.6210,-1.528
0.6215,-0.6125
0.6220,0.3031
0.6225,0.9134
0.6230,-0.002135
0.6235,-0.9177
0.6240,-1.833
0.6245,-1.833
0.6250,-0.3073
0.6255,1.219
0.6260,1.219
0.6265,-0.002135
0.6270,-0.9177
0.6275,-0.002135
0.6280,0.6083
0.6285,-0.3073
0.6290,-1.833
0.6295,-1.833
0.6300,-0.3073
0.6305,0.9134
0.6310,0.9134
0.6315,-0.002135
0.6320,-0.002135
0.6325,-0.002135
0.6330,-0.002135
0.6335,-0.002135
0.6340,-0.3073
0.6345,-0.002135
0.6350,-0.002135
0.6355,-0.3073
0.6360,-1.223
0.6365,-1.833
0.6370,-1.223
0.6375,-0.3073
0.6380,0.3031
0.6385,0.6083
0.6390,0.3031
0.6395,-0.002135
0.6400,-0.3073
0.6405,-0.3073
0.6410,-0.3073
0.6415,-1.223
0.6420,-1.223
0.6425,-0.002135
0.6430,1.219
0.6435,1.524
0.6440,0.3031
0.6445,-0.002135
0.6450,0.3031
0.6455,0.3031
0.6460,-0.3073
0.6465,-0.6125
0.6470,-0.002135
0.6475,0.3031
0.6480,0.9134
0.6485,1.829
0.6490,2.439
0.6495,1.524
0.6500,-0.002135
0.6505,-0.3073
0.6510,1.219
0.6515,2.439
0.6520,1.524
0.6525,-0.002135
0.6530,-0.6125
0.6535,-0.9177
0.6540,-0.9177
0.6545,-0.6125
0.6550,-0.6125
0.6555,-0.3073
0.6560,-0.3073
0.6565,-0.002135
0.6570,-0.002135
0.6575,-0.6125
0.6580,-0.9177
0.6585,-0.3073
0.6590,0.9134
0.6595,1.829
0.6600,2.134
0.6605,1.829
0.6610,1.219
0.6615,-0.002135
0.6620,-0.6125
0.6625,-0.6125
0.6630,-0.3073
0.6635,-0.3073
0.6640,-0.002135
0.6645,0.6083
0.6650,0.6083
0.6655,-0.3073
0.6660,-1.223
0.6665,-0.9177
0.6670,-0.002135
0.6675,-0.002135
0.6680,-0.3073
0.6685,-0.6125
0.6690,-0.3073
0.6695,-0.002135
0.6700,-0.002135
0.6705,-0.002135
0.6710,-0.002135
0.6715,-0.6125
0.6720,-1.528
0.6725,-1.223
0.6730,-0.3073
0.6735,-0.002135
0.6740,-0.002135
0.6745,-0.002135
0.6750,-0.002135
0.6755,-0.3073
0.6760,-0.6125
0.6765,-0.9177
0.6770,-0.3073
0.6775,-0.002135
0.6780,-0.002135
0.6785,-0.002135
0.6790,-0.002135
0.6795,-0.3073
0.6800,-0.3073
0.6805,-0.002135
0.6810,0.9134
0.6815,0.9134
0.6820,-0.002135
0.6825,-0.6125
0.6830,-0.3073
0.6835,0.3031
0.6840,0.9134
0.6845,0.6083
0.6850,-0.002135
0.6855,-0.002135
0.6860,-0.002135
0.6865,-0.3073
0.6870,-0.6125
0.6875,-0.002135
0.6880,0.9134
0.6885,1.829
0.6890,2.134
0.6895,2.134
0.6900,1.524
0.6905,0.6083
0.6910,-0.002135
0.6915,-0.3073
0.6920,-0.002135
0.6925,-0.002135
0.6930,-0.002135
0.6935,0.3031
0.6940,0.3031
0.6945,0.3031
0.6950,0.9134
0.6955,1.829
0.6960,2.134
0.6965,1.219
0.6970,-0.002135
0.6975,0.3031
0.6980,1.219
0.6985,0.9134
0.6990,-0.3073
0.6995,-0.9177
0.7000,-0.002135
0.7005,1.219
0.7010,0.6083
0.7015,-0.3073
0.7020,-0.6125
0.7025,-0.002135
0.7030,0.9134
0.7035,0.6083
0.7040,-0.3073
0.7045,-1.223
0.7050,-1.223
0.7055,-0.002135
0.7060,1.219
0.7065,0.9134
0.7070,-0.3073
0.7075,-1.223
0.7080,-0.6125
0.7085,-0.3073
0.7090,-0.6125
0.7095,-1.223
0.7100,-0.6125
0.7105,-0.002135
0.7110,0.6083
0.7115,-0.002135
0.7120,-1.223
0.7125,-0.9177
0.7130,-0.002135
0.7135,1.219
0.7140,0.6083
0.7145,-0.3073
0.7150,-1.223
0.7155,-1.528
0.7160,-1.833
0.7165,-1.528
0.7170,-0.3073
0.7175,0.3031
0.7180,-0.002135
0.7185,-0.3073
0.7190,-0.6125
0.7195,-0.002135
0.7200,-0.002135
0.7205,-0.6125
0.7210,-0.6125
0.7215,-0.002135
0.7220,-0.002135
0.7225,-0.3073
0.7230,-0.002135
0.7235,-0.002135
0.7240,-0.3073
0.7245,-1.223
0.7250,-0.9177
0.7255,-0.002135
0.7260,-0.002135
0.7265,-0.002135
0.7270,0.3031
0.7275,1.524
0.7280,1.524
0.7285,-0.002135
0.7290,-0.9177
0.7295,-0.3073
0.7300,0.3031
0.7305,0.3031
0.7310,-0.002135
0.7315,0.3031
0.7320,-0.002135
0.7325,-0.3073
0.7330,-0.6125
0.7335,-0.002135
0.7340,-0.002135
0.7345,-0.002135
0.7350,-0.002135
0.7355,0.3031
0.7360,-0.002135
0.7365,-0.6125
0.7370,-0.9177
0.7375,-0.6125
0.7380,-0.6125
0.7385,-0.6125
0.7390,-0.002135
0.7395,0.6083
0.7400,0.6083
0.7405,-0.002135
0.7410,-0.002135
0.7415,-0.002135
0.7420,-1.223
0.7425,-1.833
0.7430,-0.3073
0.7435,2.134
0.7440,2.439
0.7445,0.3031
0.7450,-0.6125
0.7455,-0.002135
0.7460,1.524
0.7465,1.219
0.7470,0.6083
0.7475,0.3031
0.7480,0.6083
0.7485,-0.002135
0.7490,-0.002135
0.7495,-0.002135
0.7500,0.9134
0.7505,1.219
0.7510,0.9134
0.7515,0.6083
0.7520,-0.002135
0.7525,-0.002135
0.7530,0.6083
0.7535,1.829
0.7540,1.829
0.7545,0.3031
0.7550,-0.6125
0.7555,-0.3073
0.7560,-0.002135
0.7565,-0.3073
0.7570,-0.9177
0.7575,-1.223
0.7580,-0.9177
0.7585,-0.6125
0.7590,-0.9177
0.7595,-1.223
0.7600,-1.528
0.7605,-1.833
0.7610,-1.223
0.7615,-0.002135
0.7620,-0.002135
0.7625,-1.223
0.7630,-1.833
0.7635,-1.223
0.7640,-0.3073
0.7645,-0.6125
0.7650,-1.223
0.7655,-0.9177
0.7660,-0.002135
0.7665,-0.002135
0.7670,-1.528
0.7675,-2.138
0.7680,-1.223
0.7685,-0.002135
0.7690,0.6083
0.7695,-0.002135
0.7700,-1.528
0.7705,-2.138
0.7710,-1.528
0.7715,-0.6125
0.7720,-0.002135
0.7725,-0.002135
0.7730,-0.002135
0.7735,-0.002135
0.7740,0.3031
0.7745,0.3031
0.7750,-0.002135
0.7755,-0.6125
0.7760,-0.3073
0.7765,-0.002135
0.7770,0.6083
0.7775,0.3031
0.7780,0.3031
0.7785,0.9134
0.7790,1.219
0.7795,0.9134
0.7800,0.3031
0.7805,0.6083
0.7810,0.9134
0.7815,0.9134
0.7820,-0.002135
0.7825,-0.002135
0.7830,-0.002135
0.7835,-0.002135
0.7840,-0.002135
0.7845,-0.002135
0.7850,-0.002135
0.7855,-0.002135
0.7860,-0.6125
0.7865,-0.3073
0.7870,0.6083
0.7875,2.439
0.7880,2.745
0.7885,2.134
0.7890,1.219
0.7895,0.6083
0.7900,0.6083
0.7905,-0.002135
0.7910,-0.3073
0.7915,-0.3073
0.7920,-0.002135
0.7925,0.6083
0.7930,0.3031
0.7935,-0.002135
0.7940,-0.002135
0.7945,-0.002135
0.7950,0.3031
0.7955,0.3031
0.7960,0.6083
0.7965,0.3031
0.7970,-0.002135
0.7975,-1.223
0.7980,-1.528
0.7985,-0.9177
0.7990,-0.002135
0.7995,0.3031
0.8000,0.9134
0.8005,1.524
0.8010,1.524
0.8015,1.219
0.8020,0.9134
0.8025,1.219
0.8030,1.524
0.8035,1.219
0.8040,0.9134
0.8045,1.829
0.8050,2.745
0.8055,3.05
0.8060,2.134
0.8065,1.219
0.8070,0.9134
0.8075,0.9134
0.8080,-0.002135
0.8085,-0.002135
0.8090,-0.002135
0.8095,0.3031
0.8100,-0.002135
0.8105,-0.6125
0.8110,-0.3073
0.8115,0.3031
0.8120,-0.002135
0.8125,-0.6125
0.8130,-1.223
0.8135,-0.3073
0.8140,0.6083
0.8145,0.9134
0.8150,0.6083
0.8155,-0.002135
0.8160,-0.002135
0.8165,-0.3073
0.8170,-0.9177
0.8175,-1.528
0.8180,-1.528
0.8185,-1.223
0.8190,-0.3073
0.8195,0.6083
0.8200,1.829
0.8205,1.829
0.8210,1.524
0.8215,1.219
0.8220,0.9134
0.8225,0.3031
0.8230,-0.002135
0.8235,0.6083
0.8240,0.9134
0.8245,0.6083
0.8250,-0.6125
0.8255,-1.223
0.8260,-0.9177
0.8265,-0.002135
0.8270,-0.002135
0.8275,-0.002135
0.8280,-0.6125
0.8285,-1.223
0.8290,-1.223
0.8295,-0.6125
0.8300,-0.3073
0.8305,-0.6125
0.8310,-0.9177
0.8315,-0.9177
0.8320,-0.9177
0.8325,-1.223
0.8330,-1.833
0.8335,-1.223
0.8340,-0.002135
0.8345,0.6083
0.8350,0.6083
0.8355,-0.002135
0.8360,-0.3073
0.8365,-0.9177
0.8370,-1.223
0.8375,-0.9177
0.8380,-0.3073
0.8385,-0.002135
0.8390,0.3031
0.8395,1.219
0.8400,1.829
0.8405,0.9134
0.8410,-0.6125
0.8415,-0.9177
0.8420,-0.3073
0.8425,-0.002135
0.8430,-0.9177
0.8435,-1.223
0.8440,-0.6125
0.8445,-0.002135
0.8450,0.3031
0.8455,-0.002135
0.8460,-0.9177
0.8465,-1.223
0.8470,-0.9177
0.8475,-0.6125
0.8480,-0.9177
0.8485,-1.528
0.8490,-1.833
0.8495,-0.9177
0.8500,-0.3073
0.8505,-0.9177
0.8510,-2.138
0.8515,-2.138
0.8520,-0.6125
0.8525,-0.002135
0.8530,-0.6125
0.8535,-1.833
0.8540,-1.528
0.8545,-0.002135
0.8550,0.6083
0.8555,1.219
0.8560,1.219
0.8565,1.524
0.8570,1.524
0.8575,0.9134
0.8580,-0.002135
0.8585,-0.9177
0.8590,-0.9177
0.8595,-0.6125
0.8600,-0.6125
0.8605,-1.223
0.8610,-1.528
0.8615,-0.9177
0.8620,-0.6125
0.8625,-0.6125
0.8630,-0.3073
0.8635,0.6083
0.8640,0.9134
0.8645,-0.3073
0.8650,-1.833
0.8655,-1.528
0.8660,-0.3073
0.8665,-0.002135
0.8670,-0.3073
0.8675,0.3031
0.8680,1.219
0.8685,0.3031
0.8690,-1.223
0.8695,-1.528
0.8700,-0.002135
0.8705,0.9134
0.8710,0.3031
0.8715,-0.6125
0.8720,-1.223
0.8725,-0.6125
0.8730,0.3031
0.8735,0.9134
0.8740,0.9134
0.8745,-0.002135
0.8750,-1.223
0.8755,-1.223
0.8760,-0.6125
0.8765,-0.6125
0.8770,-0.6125
0.8775,-0.002135
0.8780,0.6083
0.8785,0.9134
0.8790,0.3031
0.8795,0.3031
0.8800,1.219
0.8805,1.829
0.8810,1.524
0.8815,0.9134
0.8820,0.9134
0.8825,1.524
0.8830,1.524
0.8835,1.524
0.8840,1.524
0.8845,1.219
0.8850,0.9134
0.8855,0.3031
0.8860,-0.002135
0.8865,-0.002135
0.8870,0.6083
0.8875,0.9134
0.8880,-0.002135
0.8885,-0.9177
0.8890,-0.3073
0.8895,0.3031
0.8900,-0.002135
0.8905,-0.3073
0.8910,-0.002135
0.8915,-0.002135
0.8920,-0.9177
0.8925,-2.749
0.8930,-2.444
0.8935,-0.3073
0.8940,-0.002135
0.8945,-1.223
0.8950,-1.833
0.8955,-0.3073
0.8960,0.6083
0.8965,-0.002135
0.8970,-0.3073
0.8975,0.3031
0.8980,1.219
0.8985,0.9134
0.8990,-0.002135
0.8995,0.3031
0.9000,0.6083
0.9005,-0.002135
0.9010,-0.002135
0.9015,0.3031
0.9020,0.9134
0.9025,-0.002135
0.9030,-0.6125
0.9035,-0.6125
0.9040,-0.002135
0.9045,-0.3073
0.9050,-1.528
0.9055,-1.223
0.9060,-0.002135
0.9065,1.219
0.9070,0.9134
0.9075,-0.002135
0.9080,-0.002135
0.9085,0.6083
0.9090,0.9134
0.9095,0.3031
0.9100,-0.6125
0.9105,-1.223
0.9110,-1.223
0.9115,-0.3073
0.9120,-0.002135
0.9125,0.3031
0.9130,-0.002135
0.9135,-0.002135
0.9140,-0.6125
0.9145,-0.9177
0.9150,-0.3073
0.9155,0.6083
0.9160,1.219
0.9165,0.3031
0.9170,-0.3073
0.9175,-0.3073
0.9180,0.9134
0.9185,2.439
0.9190,2.134
0.9195,0.6083
0.9200,-0.002135
0.9205,0.3031
0.9210,1.219
0.9215,0.9134
0.9220,0.3031
0.9225,0.6083
0.9230,0.9134
0.9235,0.9134
0.9240,0.6083
0.9245,-0.002135
0.9250,-0.3073
0.9255,-0.6125
0.9260,-0.002135
0.9265,0.9134
0.9270,1.524
0.9275,0.6083
0.9280,-0.002135
0.9285,0.3031
0.9290,0.3031
0.9295,-0.3073
0.9300,-0.9177
0.9305,-0.002135
0.9310,1.219
0.9315,1.219
0.9320,0.3031
0.9325,0.3031
0.9330,0.3031
0.9335,-0.002135
0.9340,-0.9177
0.9345,-0.3073
0.9350,0.9134
0.9355,0.9134
0.9360,-0.002135
0.9365,-0.6125
0.9370,0.3031
0.9375,1.829
0.9380,1.219
0.9385,-0.3073
0.9390,-0.9177
0.9395,-0.002135
0.9400,0.3031
0.9405,-0.002135
0.9410,-0.002135
0.9415,-0.002135
0.9420,0.3031
0.9425,0.9134
0.9430,0.9134
0.9435,0.6083
0.9440,0.6083
0.9445,0.6083
0.9450,0.6083
0.9455,0.3031
0.9460,-0.002135
0.9465,-0.3073
0.9470,-0.3073
0.9475,-0.3073
0.9480,-0.6125
0.9485,-0.9177
0.9490,-0.6125
0.9495,-0.002135
0.9500,-0.002135
0.9505,-0.002135
0.9510,-0.002135
0.9515,0.3031
0.9520,0.3031
0.9525,-0.002135
0.9530,-0.6125
0.9535,-0.3073
0.9540,-0.002135
0.9545,-0.002135
0.9550,-0.002135
0.9555,-0.002135
0.9560,-0.002135
0.9565,0.3031
0.9570,0.6083
0.9575,1.524
0.9580,2.439
0.9585,2.134
0.9590,0.6083
0.9595,-0.6125
0.9600,-0.6125
0.9605,-0.002135
0.9610,-0.3073
0.9615,-1.528
0.9620,-2.138
0.9625,-1.528
0.9630,-0.6125
0.9635,-0.3073
0.9640,-0.9177
0.9645,-0.9177
0.9650,-0.6125
0.9655,-0.3073
0.9660,-0.002135
0.9665,-0.002135
0.9670,0.3031
0.9675,0.3031
0.9680,-0.3073
0.9685,-1.223
0.9690,-1.223
0.9695,-0.9177
0.9700,-0.9177
0.9705,-1.833
0.9710,-2.138
0.9715,-1.223
0.9720,0.3031
0.9725,1.219
0.9730,0.6083
0.9735,0.3031
0.9740,1.219
0.9745,2.439
0.9750,2.745
0.9755,0.9134
0.9760,-0.3073
0.9765,-0.9177
0.9770,-0.3073
0.9775,-0.002135
0.9780,0.3031
0.9785,-0.002135
0.9790,-0.3073
0.9795,-0.3073
0.9800,-0.002135
0.9805,-0.002135
0.9810,-0.002135
0.9815,-0.3073
0.9820,-0.6125
0.9825,-0.6125
0.9830,-0.6125
0.9835,-0.6125
0.9840,-0.3073
0.9845,-0.6125
0.9850,-0.9177
0.9855,-1.223
0.9860,-1.223
0.9865,-1.223
0.9870,-0.9177
0.9875,-0.3073
0.9880,0.6083
0.9885,1.524
0.9890,1.524
0.9895,0.3031
0.9900,-0.9177
0.9905,-0.9177
0.9910,-0.002135
0.9915,0.9134
0.9920,0.6083
0.9925,-0.3073
0.9930,-0.6125
0.9935,0.3031
0.9940,1.524
0.9945,0.9134
0.9950,-0.002135
0.9955,0.3031
0.9960,1.524
0.9965,1.524
0.9970,-0.002135
0.9975,-0.9177
0.9980,-0.9177
0.9985,-0.6125
0.9990,-0.9177
0.9995,-0.6125
1.0000,-0.3073
1.0005,-0.3073
1.0010,-1.223
1.0015,-1.223
1.0020,-0.002135
1.0025,0.9134
1.0030,1.524
1.0035,1.829
1.0040,2.134
1.0045,2.134
1.0050,1.524
1.0055,1.219
1.0060,1.219
1.0065,0.6083
1.0070,-0.002135
1.0075,-0.002135
1.0080,2.134
1.0085,2.439
1.0090,-0.002135
1.0095,-2.138
1.0100,-2.138
1.0105,-0.002135
1.0110,-0.002135
1.0115,-0.3073
1.0120,-0.002135
1.0125,1.524
1.0130,1.524
1.0135,-0.3073
1.0140,-1.833
1.0145,-0.9177
1.0150,-0.002135
1.0155,-0.002135
1.0160,-0.002135
1.0165,-0.002135
1.0170,-0.002135
1.0175,-0.9177
1.0180,-1.223
1.0185,-0.3073
1.0190,-0.002135
1.0195,-0.6125
1.0200,-0.9177
1.0205,-0.002135
1.0210,0.9134
1.0215,0.6083
1.0220,-0.002135
1.0225,0.3031
1.0230,0.6083
1.0235,-0.3073
1.0240,-1.833
1.0245,-1.528
1.0250,-0.002135
1.0255,-0.002135
1.0260,-0.6125
1.0265,-0.6125
1.0270,-0.3073
1.0275,-0.6125
1.0280,-1.528
1.0285,-1.833
1.0290,-0.9177
1.0295,-0.6125
1.0300,-0.9177
1.0305,-1.223
1.0310,-0.002135
1.0315,0.6083
1.0320,0.3031
1.0325,-0.002135
1.0330,-0.6125
1.0335,-0.9177
1.0340,-0.9177
1.0345,-0.3073
1.0350,0.6083
1.0355,1.219
1.0360,0.6083
1.0365,-0.9177
1.0370,-1.528
1.0375,-0.9177
1.0380,-0.002135
1.0385,-0.002135
1.0390,-0.9177
1.0395,-0.9177
1.0400,0.3031
1.0405,1.829
1.0410,2.134
1.0415,1.219
1.0420,0.9134
1.0425,1.524
1.0430,1.524
1.0435,0.6083
1.0440,-0.002135
1.0445,0.6083
1.0450,1.219
1.0455,0.6083
1.0460,-0.002135
1.0465,-0.002135
1.0470,0.6083
1.0475,-0.002135
1.0480,-1.528
1.0485,-2.444
1.0490,-1.223
1.0495,-0.002135
1.0500,-0.3073
1.0505,-1.528
1.0510,-1.833
1.0515,-0.6125
1.0520,-0.002135
1.0525,0.3031
1.0530,0.6083
1.0535,1.219
1.0540,0.9134
1.0545,-0.002135
1.0550,-0.3073
1.0555,-0.002135
1.0560,0.6083
1.0565,0.9134
1.0570,0.3031
1.0575,-0.6125
1.0580,-1.223
1.0585,-1.223
1.0590,-0.9177
1.0595,-0.9177
1.0600,-1.528
1.0605,-1.528
1.0610,-1.528
1.0615,-1.223
1.0620,-0.9177
1.0625,-0.3073
1.0630,0.3031
1.0635,0.9134
1.0640,-0.002135
1.0645,-0.6125
1.0650,-0.9177
1.0655,-0.3073
1.0660,-0.002135
1.0665,0.3031
1.0670,0.3031
1.0675,0.6083
1.0680,0.9134
1.0685,1.219
1.0690,1.219
1.0695,0.9134
1.0700,0.9134
1.0705,-0.002135
1.0710,-0.9177
1.0715,-1.833
1.0720,-1.833
1.0725,-0.9177
1.0730,-0.002135
1.0735,0.6083
1.0740,0.6083
1.0745,-0.002135
1.0750,-0.6125
1.0755,-0.3073
1.0760,0.6083
1.0765,1.524
1.0770,0.3031
1.0775,-1.223
1.0780,-2.444
1.0785,-1.528
1.0790,-0.002135
1.0795,0.3031
1.0800,-0.002135
1.0805,-0.002135
1.0810,0.6083
1.0815,0.6083
1.0820,0.6083
1.0825,0.3031
1.0830,0.3031
1.0835,-0.002135
1.0840,-0.6125
1.0845,-0.6125
1.0850,-0.002135
1.0855,0.6083
1.0860,1.524
1.0865,1.829
1.0870,2.134
1.0875,2.134
1.0880,2.134
1.0885,1.219
1.0890,0.3031
1.0895,-0.002135
1.0900,-0.002135
1.0905,1.219
1.0910,1.524
1.0915,0.6083
1.0920,-0.002135
1.0925,-0.002135
1.0930,0.9134
1.0935,0.6083
1.0940,-0.3073
1.0945,-0.3073
1.0950,-0.002135
1.0955,-0.002135
1.0960,-1.223
1.0965,-2.749
1.0970,-1.833
1.0975,-0.3073
1.0980,-0.002135
1.0985,-0.6125
1.0990,-0.3073
1.0995,0.3031
1.1000,-0.002135
1.1005,-0.9177
1.1010,-2.138
1.1015,-1.833
1.1020,-0.9177
1.1025,-0.3073
1.1030,-0.002135
1.1035,-0.3073
1.1040,-1.223
1.1045,-1.528
1.1050,-0.002135
1.1055,1.524
1.1060,1.524
1.1065,-0.002135
1.1070,-0.9177
1.1075,-0.002135
1.1080,0.6083
1.1085,-0.002135
1.1090,-1.223
1.1095,-1.528
1.1100,-0.6125
1.1105,-0.002135
1.1110,-0.002135
1.1115,-0.3073
1.1120,-0.6125
1.1125,-0.6125
1.1130,-0.6125
1.1135,-0.6125
1.1140,-0.3073
1.1145,-0.002135
1.1150,0.6083
1.1155,0.9134
1.1160,0.6083
1.1165,0.6083
1.1170,1.524
1.1175,1.829
1.1180,1.219
1.1185,0.6083
1.1190,0.3031
1.1195,0.3031
1.1200,-0.002135
1.1205,-0.002135
1.1210,0.3031
1.1215,1.524
1.1220,1.219
1.1225,-0.002135
1.1230,-0.9177
1.1235,-0.3073
1.1240,0.6083
1.1245,0.3031
1.1250,-0.3073
1.1255,-0.6125
1.1260,-0.002135
1.1265,-0.002135
1.1270,-0.3073
1.1275,-0.002135
1.1280,1.219
1.1285,1.829
1.1290,1.219
1.1295,0.3031
1.1300,-0.002135
1.1305,-0.002135
1.1310,-0.002135
1.1315,-0.002135
1.1320,0.3031
1.1325,0.9134
1.1330,-0.002135
1.1335,-0.6125
1.1340,-0.002135
1.1345,1.219
1.1350,0.9134
1.1355,-0.002135
1.1360,-0.9177
1.1365,-0.6125
1.1370,-0.6125
1.1375,-0.9177
1.1380,-0.002135
1.1385,1.524
1.1390,1.524
1.1395,-0.002135
1.1400,-0.9177
1.1405,-0.002135
1.1410,0.9134
1.1415,-0.002135
1.1420,-0.9177
1.1425,-0.3073
1.1430,0.6083
1.1435,0.3031
1.1440,-0.9177
1.1445,-0.3073
1.1450,0.9134
1.1455,1.219
1.1460,-0.3073
1.1465,-1.528
1.1470,-0.9177
1.1475,-0.3073
1.1480,-0.9177
1.1485,-1.223
1.1490,-0.3073
1.1495,0.6083
1.1500,1.219
1.1505,1.829
1.1510,2.439
1.1515,2.439
1.1520,0.9134
1.1525,-0.002135
1.1530,0.6083
1.1535,1.829
1.1540,1.524
1.1545,-0.002135
1.1550,-0.9177
1.1555,-0.002135
1.1560,0.9134
1.1565,1.524
1.1570,1.829
1.1575,2.134
1.1580,1.219
1.1585,-0.3073
1.1590,-1.223
1.1595,-0.3073
1.1600,0.3031
1.1605,-0.002135
1.1610,-0.6125
1.1615,-0.3073
1.1620,-0.002135
1.1625,-0.002135
1.1630,-0.6125
1.1635,-0.6125
1.1640,-0.6125
1.1645,-1.223
1.1650,-1.528
1.1655,-0.6125
1.1660,0.6083
1.1665,0.6083
1.1670,-0.6125
1.1675,-1.223
1.1680,-0.002135
1.1685,0.9134
1.1690,0.3031
1.1695,-0.3073
1.1700,0.3031
1.1705,1.219
1.1710,0.9134
1.1715,-0.002135
1.1720,-0.002135
1.1725,1.219
1.1730,1.219
1.1735,-0.002135
1.1740,-2.138
1.1745,-3.054
1.1750,-2.444
1.1755,-1.223
1.1760,-0.002135
1.1765,1.219
1.1770,1.219
1.1775,-0.002135
1.1780,-1.223
1.1785,-1.223
1.1790,-0.002135
1.1795,0.6083
1.1800,-0.002135
1.1805,-0.9177
1.1810,-0.9177
1.1815,-0.002135
1.1820,0.9134
1.1825,1.219
1.1830,1.219
1.1835,1.219
1.1840,0.6083
1.1845,-0.6125
1.1850,-0.9177
1.1855,-0.002135
1.1860,1.219
1.1865,0.6083
1.1870,-0.3073
1.1875,-1.223
1.1880,-1.528
1.1885,-2.444
1.1890,-3.359
1.1895,-3.664
1.1900,-2.749
1.1905,-2.444
1.1910,-1.833
1.1915,-0.6125
1.1920,1.524
1.1925,3.66
1.1930,3.355
1.1935,1.219
1.1940,-0.3073
1.1945,0.3031
1.1950,2.134
1.1955,2.439
1.1960,1.524
1.1965,0.9134
1.1970,0.6083
1.1975,-3.054
1.1980,-10.99
1.1985,-17.4
1.1990,-17.09
1.1995,-13.43
1.2000,-12.21
1.2005,-12.82
1.2010,-10.68
1.2015,-6.716
1.2020,-5.496
1.2025,-6.106
1.2030,-1.528
1.2035,8.238
1.2040,14.95
1.2045,13.43
1.2050,10.37
1.2055,10.07
1.2060,6.407
1.2065,-7.327
1.2070,-24.42
1.2075,-31.74
1.2080,-29.3
1.2085,-27.16
1.2090,-28.69
1.2095,-26.86
1.2100,-19.53
1.2105,-12.52
1.2110,-10.38
1.2115,-8.242
1.2120,-3.054
1.2125,3.05
1.2130,9.459
1.2135,18
1.2140,28.69
1.2145,35.71
1.2150,36.32
1.2155,36.01
1.2160,39.67
1.2165,44.25
1.2170,44.56
1.2175,41.2
1.2180,38.15
1.2185,34.48
1.2190,29.91
1.2195,26.85
1.2200,27.16
1.2205,29.3
1.2210,30.52
1.2215,33.57
1.2220,44.56
1.2225,62.26
1.2230,77.82
1.2235,80.26
1.2240,64.7
1.2245,35.1
1.2250,2.439
1.2255,-22.89
1.2260,-38.46
1.2265,-47.92
1.2270,-54.33
1.2275,-57.99
1.2280,-59.82
1.2285,-61.04
1.2290,-60.43
1.2295,-53.41
1.2300,-41.81
1.2305,-31.74
1.2310,-25.64
1.2315,-16.48
1.2320,-0.9177
1.2325,13.73
1.2330,19.23
1.2335,18.61
1.2340,18
1.2345,16.78
1.2350,9.154
1.2355,-3.359
1.2360,-15.87
1.2365,-25.94
1.2370,-35.71
1.2375,-43.64
1.2380,-46.39
1.2385,-44.56
1.2390,-42.73
1.2395,-41.2
1.2400,-35.71
1.2405,-24.42
1.2410,-11.6
1.2415,-1.833
1.2420,3.965
1.2425,7.323
1.2430,7.323
1.2435,4.881
1.2440,2.745
1.2445,2.134
1.2450,3.05
1.2455,4.271
1.2460,6.407
1.2465,7.933
1.2470,7.933
1.2475,7.323
1.2480,8.849
1.2485,11.6
1.2490,11.6
1.2495,6.712
1.2500,-1.223
1.2505,-7.937
1.2510,-10.38
1.2515,-8.853
1.2520,-5.19
1.2525,-2.138
1.2530,-1.223
1.2535,-2.749
1.2540,-4.58
1.2545,-5.19
1.2550,-4.58
1.2555,-3.664
1.2560,-2.749
1.2565,-2.138
1.2570,-1.528
1.2575,-1.223
1.2580,-0.9177
1.2585,-0.9177
1.2590,-1.223
1.2595,-1.833
1.2600,-1.223
1.2605,-0.3073
1.2610,-0.002135
1.2615,-0.6125
1.2620,-1.223
1.2625,-1.528
1.2630,-1.223
1.2635,-1.223
1.2640,-1.223
1.2645,-0.6125
1.2650,-0.3073
1.2655,-0.002135
1.2660,0.3031
1.2665,1.219
1.2670,1.829
1.2675,1.219
1.2680,0.6083
1.2685,0.6083
1.2690,1.524
1.2695,2.134
1.2700,1.524
1.2705,0.6083
1.2710,0.6083
1.2715,1.829
1.2720,2.134
1.2725,0.9134
1.2730,-0.9177
1.2735,-1.223
1.2740,-0.9177
1.2745,-1.833
1.2750,-4.275
1.2755,-5.19
1.2760,-3.97
1.2765,-1.833
1.2770,-1.833
1.2775,-3.054
1.2780,-4.275
1.2785,-4.885
1.2790,-4.275
1.2795,-1.833
1.2800,2.439
1.2805,6.407
1.2810,8.238
1.2815,9.154
1.2820,9.764
1.2825,9.764
1.2830,9.154
1.2835,9.459
1.2840,11.9
1.2845,14.34
1.2850,13.43
1.2855,10.68
1.2860,8.849
1.2865,9.459
1.2870,9.459
1.2875,7.323
1.2880,4.271
1.2885,2.134
1.2890,2.439
1.2895,4.271
1.2900,5.797
1.2905,5.797
1.2910,4.576
1.2915,3.355
1.2920,3.66
1.2925,4.576
1.2930,4.881
1.2935,4.576
1.2940,4.271
1.2945,3.66
1.2950,3.05
1.2955,3.355
1.2960,3.355
1.2965,2.134
1.2970,0.9134
1.2975,3.05
1.2980,7.628
1.2985,11.6
1.2990,12.51
1.2995,11.6
1.3000,9.764
1.3005,7.628
1.3010,5.186
1.3015,4.271
1.3020,5.797
1.3025,8.238
1.3030,10.68
1.3035,13.43
1.3040,13.73
1.3045,8.543
1.3050,-0.9177
1.3055,-9.463
1.3060,-13.74
1.3065,-15.87
1.3070,-18.92
1.3075,-20.45
1.3080,-17.09
1.3085,-11.9
1.3090,-9.158
1.3095,-8.853
1.3100,-7.327
1.3105,-3.664
1.3110,-1.223
1.3115,-0.6125
1.3120,-0.6125
1.3125,-0.6125
1.3130,-1.223
1.3135,-1.528
1.3140,0.6083
1.3145,6.102
1.3150,10.07
1.3155,7.933
1.3160,-0.002135
1.3165,-9.158
1.3170,-15.26
1.3175,-17.09
1.3180,-17.09
1.3185,-16.48
1.3190,-14.65
1.3195,-10.68
1.3200,-5.496
1.3205,-0.6125
1.3210,1.524
1.3215,1.829
1.3220,1.219
1.3225,0.3031
1.3230,-0.002135
1.3235,-0.002135
1.3240,0.6083
1.3245,1.524
1.3250,2.439
1.3255,3.965
1.3260,5.491
1.3265,6.407
1.3270,5.491
1.3275,3.355
1.3280,2.134
1.3285,2.134
1.3290,3.05
1.3295,3.355
1.3300,2.439
1.3305,0.6083
1.3310,-0.002135
1.3315,0.9134
1.3320,3.05
1.3325,5.186
1.3330,6.102
1.3335,6.102
1.3340,4.271
1.3345,0.9134
1.3350,-2.749
1.3355,-4.58
1.3360,-5.496
1.3365,-6.716
1.3370,-8.242
1.3375,-8.548
1.3380,-7.022
1.3385,-4.885
1.3390,-2.138
1.3395,1.219
1.3400,5.186
1.3405,8.849
1.3410,12.51
1.3415,16.78
1.3420,20.75
1.3425,21.67
1.3430,19.23
1.3435,17.39
1.3440,17.7
1.3445,18.31
1.3450,16.48
1.3455,14.65
1.3460,15.26
1.3465,17.09
1.3470,15.56
1.3475,11.29
1.3480,8.238
1.3485,9.154
1.3490,9.764
1.3495,6.102
1.3500,-0.6125
1.3505,-6.411
1.3510,-7.632
1.3515,-5.801
1.3520,-3.359
1.3525,-1.833
1.3530,-0.3073
1.3535,0.9134
1.3540,1.829
1.3545,1.829
1.3550,0.6083
1.3555,-0.9177
1.3560,-2.138
1.3565,-4.275
1.3570,-7.632
1.3575,-10.68
1.3580,-9.768
1.3585,-6.411
1.3590,-4.58
1.3595,-6.106
1.3600,-6.106
1.3605,-3.054
1.3610,-2.444
1.3615,-8.548
1.3620,-18.92
1.3625,-28.08
1.3630,-34.18
1.3635,-37.85
1.3640,-36.32
1.3645,-28.39
1.3650,-21.67
1.3655,-25.33
1.3660,-38.15
1.3665,-49.44
1.3670,-52.19
1.3675,-50.05
1.3680,-47.31
1.3685,-43.03
1.3690,-34.49
1.3695,-21.98
1.3700,-7.327
1.3705,6.712
1.3710,16.78
1.3715,21.06
1.3720,24.11
1.3725,29.91
1.3730,34.48
1.3735,32.35
1.3740,29.91
1.3745,39.37
1.3750,59.51
1.3755,74.16
1.3760,74.77
1.3765,69.28
1.3770,64.39
1.3775,51.88
1.3780,25.63
1.3785,-5.19
1.3790,-27.47
1.3795,-39.37
1.3800,-47.92
1.3805,-54.94
1.3810,-56.16
1.3815,-51.89
1.3820,-45.48
1.3825,-38.46
1.3830,-31.13
1.3835,-25.94
1.3840,-22.89
1.3845,-14.96
1.3850,-0.002135
1.3855,16.48
1.3860,27.16
1.3865,32.04
1.3870,32.04
1.3875,26.55
1.3880,17.39
1.3885,13.12
1.3890,16.17
1.3895,17.09
1.3900,10.07
1.3905,3.965
1.3910,9.459
1.3915,19.84
1.3920,22.89
1.3925,18.31
1.3930,15.56
1.3935,16.48
1.3940,14.04
1.3945,7.933
1.3950,3.965
1.3955,2.439
1.3960,-1.223
1.3965,-7.632
1.3970,-10.38
1.3975,-9.158
1.3980,-8.853
1.3985,-10.68
1.3990,-10.99
1.3995,-9.463
1.4000,-9.158
1.4005,-10.99
1.4010,-10.99
1.4015,-8.548
1.4020,-7.327
1.4025,-8.242
1.4030,-8.853
1.4035,-8.548
1.4040,-11.29
1.4045,-18.62
1.4050,-25.33
1.4055,-25.33
1.4060,-19.23
1.4065,-14.65
1.4070,-21.06
1.4075,-38.76
1.4080,-55.85
1.4085,-59.21
1.4090,-49.44
1.4095,-38.76
1.4100,-37.24
1.4105,-42.42
1.4110,-45.78
1.4115,-41.51
1.4120,-28.39
1.4125,-8.548
1.4130,11.9
1.4135,26.55
1.4140,35.1
1.4145,44.86
1.4150,59.21
1.4155,71.72
1.4160,74.77
1.4165,69.58
1.4170,61.04
1.4175,49.44
1.4180,33.57
1.4185,18.61
1.4190,14.65
1.4195,22.58
1.4200,32.65
1.4205,36.01
1.4210,31.74
1.4215,25.02
1.4220,18.92
1.4225,12.82
1.4230,6.407
1.4235,0.6083
1.4240,-2.444
1.4245,-3.054
1.4250,-1.223
1.4255,1.219
1.4260,3.05
1.4265,2.439
1.4270,0.9134
1.4275,1.219
1.4280,3.965
1.4285,5.491
1.4290,3.66
1.4295,-0.002135
1.4300,-1.833
1.4305,-3.359
1.4310,-5.801
1.4315,-8.242
1.4320,-8.548
1.4325,-6.411
1.4330,-4.885
1.4335,-4.885
1.4340,-6.411
1.4345,-8.242
1.4350,-9.158
1.4355,-8.548
1.4360,-7.632
1.4365,-8.242
1.4370,-10.07
1.4375,-10.07
1.4380,-8.548
1.4385,-9.768
1.4390,-12.21
1.4395,-7.937
1.4400,8.849
1.4405,31.13
1.4410,45.47
1.4415,47.3
1.4420,41.2
1.4425,29.91
1.4430,14.04
1.4435,-1.528
1.4440,-11.6
1.4445,-14.65
1.4450,-17.7
1.4455,-23.81
1.4460,-29.91
1.4465,-32.35
1.4470,-32.35
1.4475,-31.13
1.4480,-27.16
1.4485,-19.53
1.4490,-11.29
1.4495,-4.885
1.4500,0.3031
1.4505,4.881
1.4510,6.102
1.4515,2.745
1.4520,-2.138
1.4525,-6.716
1.4530,-12.21
1.4535,-21.06
1.4540,-30.52
1.4545,-33.57
1.4550,-28.39
1.4555,-21.37
1.4560,-17.4
1.4565,-15.57
1.4570,-10.99
1.4575,-5.496
1.4580,-4.275
1.4585,-7.632
1.4590,-10.99
1.4595,-10.07
1.4600,-5.19
1.4605,-0.6125
1.4610,1.829
1.4615,2.134
1.4620,2.439
1.4625,4.576
1.4630,7.323
1.4635,8.849
1.4640,9.459
1.4645,13.73
1.4650,18.92
1.4655,16.78
1.4660,6.102
1.4665,0.9134
1.4670,14.65
1.4675,40.89
1.4680,61.34
1.4685,65
1.4690,50.66
1.4695,22.28
1.4700,-12.52
1.4705,-39.98
1.4710,-50.36
1.4715,-50.66
1.4720,-52.5
1.4725,-54.94
1.4730,-50.36
1.4735,-42.12
1.4740,-38.76
1.4745,-37.24
1.4750,-29.91
1.4755,-20.45
1.4760,-16.18
1.4765,-10.99
1.4770,6.102
1.4775,29.91
1.4780,47
1.4785,61.04
1.4790,82.1
1.4795,98.58
1.4800,86.98
1.4805,53.71
1.4810,30.82
1.4815,30.82
1.4820,34.48
1.4825,29.91
1.4830,28.69
1.4835,29.91
1.4840,10.68
1.4845,-31.74
1.4850,-63.48
1.4855,-62.57
1.4860,-53.41
1.4865,-63.79
1.4870,-76.91
1.4875,-60.74
1.4880,-22.59
1.4885,3.965
1.4890,12.82
1.4895,22.89
1.4900,34.79
1.4905,30.52
1.4910,17.39
1.4915,26.55
1.4920,63.17
1.4925,90.95
1.4930,83.32
1.4935,54.32
1.4940,28.38
1.4945,7.323
1.4950,-14.65
1.4955,-27.16
1.4960,-20.14
1.4965,-5.496
1.4970,1.219
1.4975,3.66
1.4980,11.9
1.4985,20.14
1.4990,16.48
1.4995,4.881
1.5000,-0.9177
1.5005,-0.9177
1.5010,-3.664
1.5015,-9.158
1.5020,-10.07
1.5025,-10.38
1.5030,-20.76
1.5035,-36.93
1.5040,-43.64
1.5045,-37.85
1.5050,-34.18
1.5055,-40.29
1.5060,-42.12
1.5065,-18.62
1.5070,29.91
1.5075,83.62
1.5080,118.4
1.5085,126.3
1.5090,115.7
1.5095,98.88
1.5100,74.77
1.5105,36.32
1.5110,-7.022
1.5115,-31.74
1.5120,-28.69
1.5125,-22.59
1.5130,-43.34
1.5135,-91.26
1.5140,-139.2
1.5145,-163.3
1.5150,-159
1.5155,-136.1
1.5160,-107.4
1.5165,-84.85
1.5170,-69.59
1.5175,-51.89
1.5180,-29.3
1.5185,-15.57
1.5190,-23.5
1.5195,-47.61
1.5200,-70.5
1.5205,-78.13
1.5210,-57.68
1.5215,-0.002135
1.5220,81.79
1.5225,147.1
1.5230,167.9
1.5235,160.5
1.5240,152
1.5245,136.1
1.5250,87.28
1.5255,17.09
1.5260,-28.08
1.5265,-26.86
1.5270,-6.411
1.5275,-0.9177
1.5280,-11.29
1.5285,-22.89
1.5290,-32.96
1.5295,-44.26
1.5300,-49.14
1.5305,-42.42
1.5310,-34.49
1.5315,-34.79
1.5320,-36.02
1.5325,-29.91
1.5330,-29
1.5335,-46.09
1.5340,-68.98
1.5345,-73.25
1.5350,-57.07
1.5355,-41.81
1.5360,-39.37
1.5365,-40.9
1.5370,-38.46
1.5375,-39.98
1.5380,-54.33
1.5385,-74.77
1.5390,-85.46
1.5395,-77.83
1.5400,-57.07
1.5405,-34.79
1.5410,-16.18
1.5415,3.66
1.5420,32.04
1.5425,63.78
1.5430,86.06
1.5435,97.66
1.5440,109.6
1.5445,121.2
1.5450,116.9
1.5455,96.74
1.5460,87.89
1.5465,106.2
1.5470,122.1
1.5475,95.83
1.5480,33.26
1.5485,-20.45
1.5490,-42.42
1.5495,-49.14
1.5500,-57.99
1.5505,-62.57
1.5510,-55.24
1.5515,-47.61
1.5520,-50.66
1.5525,-53.11
1.5530,-38.15
1.5535,-7.632
1.5540,22.28
1.5545,43.03
1.5550,57.68
1.5555,71.41
1.5560,85.15
1.5565,94.91
1.5570,93.39
1.5575,74.77
1.5580,44.25
1.5585,17.39
1.5590,7.933
1.5595,17.39
1.5600,36.32
1.5605,54.02
1.5610,59.51
1.5615,46.39
1.5620,21.06
1.5625,0.9134
1.5630,-3.359
1.5635,0.6083
1.5640,2.134
1.5645,3.355
1.5650,21.36
1.5655,68.67
1.5660,133.4
1.5665,185.9
1.5670,201.1
1.5675,179.8
1.5680,151.1
1.5685,145
1.5690,159.6
1.5695,166.3
1.5700,145.3
1.5705,108
1.5710,74.47
1.5715,45.17
1.5720,13.12
1.5725,-14.96
1.5730,-29
1.5735,-36.63
1.5740,-54.63
1.5745,-79.66
1.5750,-91.87
1.5755,-89.12
1.5760,-86.98
1.5765,-91.87
1.5770,-98.27
1.5775,-112
1.5780,-143.7
1.5785,-179.2
1.5790,-191.1
1.5795,-183.4
1.5800,-186.2
1.5805,-200.5
1.5810,-187.1
1.5815,-130.6
1.5820,-76
1.5825,-70.5
1.5830,-101.6
1.5835,-125.7
1.5840,-129.7
1.5845,-130.6
1.5850,-131.8
1.5855,-122.1
1.5860,-105
1.5865,-95.83
1.5870,-95.22
1.5875,-87.59
1.5880,-64.7
1.5885,-34.49
1.5890,-0.9177
1.5895,35.4
1.5900,66.84
1.5905,79.35
1.5910,73.55
1.5915,63.78
1.5920,59.21
1.5925,54.63
1.5930,46.08
1.5935,38.76
1.5940,38.15
1.5945,42.42
1.5950,47.61
1.5955,50.97
1.5960,51.58
1.5965,46.69
1.5970,36.93
1.5975,27.77
1.5980,25.63
1.5985,32.35
1.5990,38.45
1.5995,25.94
1.6000,-11.29
1.6005,-55.85
1.6010,-79.05
1.6015,-70.2
1.6020,-45.78
1.6025,-23.5
1.6030,-3.97
1.6035,18.61
1.6040,39.06
1.6045,44.86
1.6050,38.45
1.6055,34.18
1.6060,38.15
1.6065,43.64
1.6070,45.17
1.6075,48.52
1.6080,56.76
1.6085,64.7
1.6090,66.84
1.6095,68.06
1.6100,72.63
1.6105,73.85
1.6110,65.61
1.6115,55.54
1.6120,56.46
1.6125,67.14
1.6130,76.3
1.6135,82.1
1.6140,90.34
1.6145,95.22
1.6150,79.65
1.6155,43.03
1.6160,7.628
1.6165,-10.07
1.6170,-21.37
1.6175,-39.37
1.6180,-54.02
1.6185,-52.8
1.6190,-42.73
1.6195,-37.54
1.6200,-29.61
1.6205,-7.937
1.6210,7.628
1.6215,-9.463
1.6220,-43.64
1.6225,-39.37
1.6230,19.53
1.6235,79.35
1.6240,79.35
1.6245,23.19
1.6250,-36.93
1.6255,-68.67
1.6260,-75.69
1.6265,-67.76
1.6270,-45.78
1.6275,-19.23
1.6280,-5.496
1.6285,-9.463
1.6290,-22.28
1.6295,-36.02
1.6300,-45.17
1.6305,-38.46
1.6310,-11.9
1.6315,12.82
1.6320,12.21
1.6325,-3.054
1.6330,-3.054
1.6335,14.95
1.6340,21.06
1.6345,3.66
1.6350,-8.853
1.6355,1.524
1.6360,13.73
1.6365,3.05
1.6370,-15.26
1.6375,-12.52
1.6380,6.712
1.6385,13.43
1.6390,-2.138
1.6395,-24.42
1.6400,-43.03
1.6405,-65.62
1.6410,-96.14
1.6415,-124.5
1.6420,-135.8
1.6425,-123.6
1.6430,-89.73
1.6435,-45.48
1.6440,-8.548
1.6445,15.56
1.6450,41.81
1.6455,80.57
1.6460,116.6
1.6465,124.5
1.6470,102.8
1.6475,72.33
1.6480,42.11
1.6485,6.102
1.6490,-32.05
1.6495,-52.8
1.6500,-47.61
1.6505,-36.02
1.6510,-40.9
1.6515,-57.38
1.6520,-63.48
1.6525,-52.5
1.6530,-37.85
1.6535,-28.69
1.6540,-19.53
1.6545,-3.664
1.6550,13.43
1.6555,21.97
1.6560,18.92
1.6565,7.933
1.6570,-4.885
1.6575,-14.35
1.6580,-16.79
1.6585,-15.57
1.6590,-20.14
1.6595,-29.3
1.6600,-28.69
1.6605,-11.9
1.6610,7.017
1.6615,16.48
1.6620,34.48
1.6625,87.89
1.6630,166.6
1.6635,219.7
1.6640,211.2
1.6645,160.2
1.6650,114.1
1.6655,94.91
1.6660,87.28
1.6665,69.58
1.6670,39.67
1.6675,10.98
1.6680,-6.411
1.6685,-15.26
1.6690,-27.47
1.6695,-49.44
1.6700,-73.86
1.6705,-86.68
1.6710,-87.59
1.6715,-87.29
1.6720,-88.81
1.6725,-87.9
1.6730,-91.87
1.6735,-120.9
1.6740,-177
1.6745,-227.7
1.6750,-240.2
1.6755,-224.9
1.6760,-215.2
1.6765,-217.6
1.6770,-205.4
1.6775,-165.4
1.6780,-119.6
1.6785,-92.17
1.6790,-74.16
1.6795,-45.78
1.6800,-13.74
1.6805,-0.002135
1.6810,-5.19
1.6815,-7.937
1.6820,3.05
1.6825,15.56
1.6830,16.78
1.6835,11.6
1.6840,11.9
1.6845,19.53
1.6850,31.43
1.6855,47.61
1.6860,62.56
1.6865,64.7
1.6870,54.93
1.6875,56.15
1.6880,87.89
1.6885,134
1.6890,155
1.6895,134
1.6900,95.83
1.6905,75.08
1.6910,74.16
1.6915,70.5
1.6920,58.9
1.6925,68.97
1.6930,127.6
1.6935,216.1
1.6940,279.3
1.6945,282
1.6950,240.2
1.6955,187.1
1.6960,133.4
1.6965,72.02
1.6970,11.6
1.6975,-30.52
1.6980,-62.26
1.6985,-113.2
1.6990,-185.3
1.6995,-231
1.7000,-207.2
1.7005,-128.2
1.7010,-48.53
1.7015,-1.223
1.7020,22.58
1.7025,38.76
1.7030,39.37
1.7035,13.43
1.7040,-25.94
1.7045,-47.92
1.7050,-31.74
1.7055,13.73
1.7060,61.34
1.7065,89.42
1.7070,97.35
1.7075,101
1.7080,112.6
1.7085,127.9
1.7090,135.8
1.7095,132.5
1.7100,121.2
1.7105,107.1
1.7110,94.91
1.7115,90.03
1.7120,90.03
1.7125,81.79
1.7130,59.51
1.7135,38.15
1.7140,36.32
1.7145,52.8
1.7150,65.31
1.7155,61.04
1.7160,46.39
1.7165,32.65
1.7170,23.19
1.7175,19.84
1.7180,23.8
1.7185,28.99
1.7190,20.14
1.7195,-12.52
1.7200,-60.43
1.7205,-101.3
1.7210,-119.6
1.7215,-119
1.7220,-115.7
1.7225,-124.5
1.7230,-141
1.7235,-149.9
1.7240,-144.7
1.7245,-132.8
1.7250,-119.6
1.7255,-99.5
1.7260,-68.06
1.7265,-32.35
1.7270,-1.528
1.7275,18
1.7280,21.36
1.7285,2.439
1.7290,-29.3
1.7295,-54.02
1.7300,-63.79
1.7305,-67.76
1.7310,-66.53
1.7315,-49.44
1.7320,-20.14
1.7325,-3.054
1.7330,-5.19
1.7335,-0.6125
1.7340,28.38
1.7345,65.92
1.7350,92.47
1.7355,113.2
1.7360,125.4
1.7365,92.47
1.7370,-8.853
1.7375,-138.9
1.7380,-228
1.7385,-253.3
1.7390,-239.6
1.7395,-205.7
1.7400,-145.6
1.7405,-67.14
1.7410,0.9134
1.7415,41.2
1.7420,62.87
1.7425,79.96
1.7430,97.35
1.7435,118.4
1.7440,145
1.7445,163.9
1.7450,160.2
1.7455,141
1.7460,122.4
1.7465,100.4
1.7470,57.98
1.7475,5.491
1.7480,-14.04
1.7485,16.78
1.7490,60.12
1.7495,66.23
1.7500,39.67
1.7505,26.55
1.7510,41.81
1.7515,50.05
1.7520,30.21
1.7525,15.56
1.7530,42.73
1.7535,88.81
1.7540,105.6
1.7545,101.9
1.7550,129.1
1.7555,188
1.7560,206
1.7565,138.3
1.7570,32.04
1.7575,-42.73
1.7580,-83.93
1.7585,-129.7
1.7590,-183.4
1.7595,-216.4
1.7600,-226.2
1.7605,-237.4
1.7610,-256.7
1.7615,-271
1.7620,-281.4
1.7625,-293
1.7630,-285.1
1.7635,-234.1
1.7640,-164.8
1.7645,-131.5
1.7650,-150.8
1.7655,-188.3
1.7660,-219.4
1.7665,-257.6
1.7670,-320.2
1.7675,-389.1
1.7680,-426.7
1.7685,-400.7
1.7690,-304.9
1.7695,-167.2
1.7700,-42.73
1.7705,31.43
1.7710,73.55
1.7715,120.9
1.7720,174.3
1.7725,198.4
1.7730,181.3
1.7735,156.9
1.7740,156
1.7745,175.5
1.7750,201.1
1.7755,236.2
1.7760,282.9
1.7765,316.8
1.7770,311.3
1.7775,276.2
1.7780,246
1.7785,230.7
1.7790,206.3
1.7795,161.4
1.7800,122.4
1.7805,116.9
1.7810,133.7
1.7815,139.5
1.7820,124.8
1.7825,103.5
1.7830,74.16
1.7835,28.08
1.7840,-10.68
1.7845,1.524
1.7850,61.95
1.7855,111.4
1.7860,116.6
1.7865,123
1.7870,181
1.7875,262.5
1.7880,298.5
1.7885,284.7
1.7890,289.9
1.7895,358.3
1.7900,444.7
1.7905,465.4
1.7910,388.5
1.7915,253.9
1.7920,127.3
1.7925,44.56
1.7930,-0.002135
1.7935,-31.13
1.7940,-60.13
1.7945,-89.12
1.7950,-128.5
1.7955,-188.9
1.7960,-260.3
1.7965,-317.4
1.7970,-354
1.7975,-387.9
1.7980,-426.4
1.7985,-449.6
1.7990,-441
1.7995,-409.9
1.8000,-378.1
1.8005,-351.6
1.8010,-318.6
1.8015,-266.1
1.8020,-199
1.8025,-147.7
1.8030,-147.7
1.8035,-190.7
1.8040,-217.6
1.8045,-182.8
1.8050,-110.2
1.8055,-54.63
1.8060,-32.05
1.8065,-21.67
1.8070,-15.87
1.8075,-23.2
1.8080,-27.47
1.8085,-2.749
1.8090,36.01
1.8095,46.69
1.8100,22.89
1.8105,1.829
1.8110,5.186
1.8115,20.75
1.8120,41.5
1.8125,74.77
1.8130,110.2
1.8135,125.7
1.8140,130.3
1.8145,152.3
1.8150,183.4
1.8155,188
1.8160,165.4
1.8165,149.2
1.8170,137.6
1.8175,90.34
1.8180,5.186
1.8185,-59.21
1.8190,-67.76
1.8195,-51.89
1.8200,-48.83
1.8205,-47
1.8210,-29.61
1.8215,-26.55
1.8220,-73.55
1.8225,-153.2
1.8230,-213.6
1.8235,-225.2
1.8240,-193.2
1.8245,-134.6
1.8250,-75.08
1.8255,-48.53
1.8260,-65.62
1.8265,-93.09
1.8270,-90.64
1.8275,-57.99
1.8280,-24.42
1.8285,-5.801
1.8290,5.797
1.8295,16.78
1.8300,18.31
1.8305,9.154
1.8310,4.576
1.8315,19.23
1.8320,45.17
1.8325,61.04
1.8330,57.07
1.8335,48.52
1.8340,55.54
1.8345,76.6
1.8350,90.34
1.8355,81.79
1.8360,61.65
1.8365,50.97
1.8370,54.93
1.8375,58.9
1.8380,45.47
1.8385,14.04
1.8390,-17.09
1.8395,-27.77
1.8400,-14.96
1.8405,5.797
1.8410,20.75
1.8415,30.82
1.8420,42.42
1.8425,50.66
1.8430,47.91
1.8435,41.5
1.8440,47.61
1.8445,67.75
1.8450,89.73
1.8455,107.4
1.8460,123.3
1.8465,135.8
1.8470,144.4
1.8475,159
1.8480,188.9
1.8485,216.1
1.8490,212.7
1.8495,179.5
1.8500,143.4
1.8505,118.4
1.8510,93.39
1.8515,70.8
1.8520,79.96
1.8525,134.6
1.8530,201.4
1.8535,234.7
1.8540,223.7
1.8545,190.7
1.8550,154.7
1.8555,121.2
1.8560,91.56
1.8565,65
1.8570,39.06
1.8575,20.14
1.8580,18.92
1.8585,29.91
1.8590,22.58
1.8595,-23.5
1.8600,-89.42
1.8605,-135.8
1.8610,-153.8
1.8615,-174
1.8620,-222.8
1.8625,-285.7
1.8630,-319.8
1.8635,-299.4
1.8640,-237.1
1.8645,-161.8
1.8650,-85.15
1.8655,-9.463
1.8660,49.74
1.8665,69.28
1.8670,56.15
1.8675,48.83
1.8680,67.45
1.8685,85.15
1.8690,72.02
1.8695,44.56
1.8700,36.93
1.8705,45.17
1.8710,37.84
1.8715,12.82
1.8720,-0.9177
1.8725,1.219
1.8730,-5.801
1.8735,-31.44
1.8740,-49.44
1.8745,-49.75
1.8750,-56.77
1.8755,-77.22
1.8760,-69.89
1.8765,-5.801
1.8770,72.94
1.8775,96.44
1.8780,53.1
1.8785,-3.359
1.8790,-25.64
1.8795,-17.4
1.8800,-5.19
1.8805,-2.138
1.8810,-4.885
1.8815,-8.548
1.8820,-11.9
1.8825,-17.09
1.8830,-30.22
1.8835,-54.02
1.8840,-76.91
1.8845,-80.57
1.8850,-58.29
1.8855,-25.64
1.8860,-3.664
1.8865,-5.801
1.8870,-29.91
1.8875,-63.48
1.8880,-88.51
1.8885,-89.73
1.8890,-59.82
1.8895,-3.664
1.8900,52.8
1.8905,70.5
1.8910,29.3
1.8915,-36.93
1.8920,-72.03
1.8925,-66.23
1.8930,-65.92
1.8935,-104.4
1.8940,-152.6
1.8945,-170.6
1.8950,-173.7
1.8955,-204.5
1.8960,-257.9
1.8965,-284.1
1.8970,-260
1.8975,-206.3
1.8980,-133.7
1.8985,-26.55
1.8990,101
1.8995,190.1
1.9000,210
1.9005,206.9
1.9010,239
1.9015,282.3
1.9020,257.3
1.9025,134
1.9030,-24.11
1.9035,-134.3
1.9040,-161.4
1.9045,-108.3
1.9050,12.21
1.9055,157.8
1.9060,243.2
1.9065,212.1
1.9070,109
1.9075,28.08
1.9080,-7.632
1.9085,-64.4
1.9090,-168.2
1.9095,-240.8
1.9100,-210
1.9105,-137
1.9110,-147.4
1.9115,-256.4
1.9120,-342.7
1.9125,-310.7
1.9130,-204.2
1.9135,-129.1
1.9140,-117.8
1.9145,-119.3
1.9150,-94
1.9155,-54.02
1.9160,-15.26
1.9165,36.01
1.9170,116
1.9175,208.1
1.9180,280.5
1.9185,315.3
1.9190,304.6
1.9195,234.1
1.9200,107.4
1.9205,-24.11
1.9210,-92.48
1.9215,-76
1.9220,-18.31
1.9225,27.16
1.9230,43.95
1.9235,32.96
1.9240,-0.002135
1.9245,-30.52
1.9250,-20.45
1.9255,35.1
1.9260,94.61
1.9265,126.7
1.9270,150.5
1.9275,184
1.9280,197.2
1.9285,160.2
1.9290,106.5
1.9295,89.42
1.9300,104.7
1.9305,109
1.9310,93.08
1.9315,81.79
1.9320,72.33
1.9325,40.59
1.9330,-2.138
1.9335,-16.48
1.9340,1.219
1.9345,11.9
1.9350,1.829
1.9355,4.576
1.9360,38.76
1.9365,73.55
1.9370,81.48
1.9375,79.04
1.9380,89.73
1.9385,97.97
1.9390,74.16
1.9395,25.33
1.9400,-10.99
1.9405,-18.92
1.9410,-21.06
1.9415,-47.61
1.9420,-91.87
1.9425,-117.2
1.9430,-99.5
1.9435,-57.38
1.9440,-33.27
1.9445,-50.05
1.9450,-91.26
1.9455,-123
1.9460,-125.1
1.9465,-105
1.9470,-86.68
1.9475,-85.76
1.9480,-91.87
1.9485,-84.54
1.9490,-68.67
1.9495,-72.94
1.9500,-98.58
1.9505,-97.66
1.9510,-34.49
1.9515,55.54
1.9520,109
1.9525,110.2
1.9530,90.95
1.9535,67.45
1.9540,30.52
1.9545,-11.6
1.9550,-36.32
1.9555,-46.7
1.9560,-63.18
1.9565,-72.33
1.9570,-48.22
1.9575,-19.84
1.9580,-43.34
1.9585,-99.5
1.9590,-94.31
1.9595,3.355
1.9600,96.74
1.9605,84.23
1.9610,-7.022
1.9615,-74.47
1.9620,-75.39
1.9625,-47.92
1.9630,-25.33
1.9635,1.524
1.9640,36.62
1.9645,56.76
1.9650,45.47
1.9655,13.43
1.9660,-26.25
1.9665,-68.06
1.9670,-87.9
1.9675,-54.33
1.9680,18.61
1.9685,57.68
1.9690,1.219
1.9695,-119
1.9700,-204.2
1.9705,-191.7
1.9710,-123.9
1.9715,-94
1.9720,-137.6
1.9725,-195.6
1.9730,-190.1
1.9735,-114.5
1.9740,-30.83
1.9745,13.43
1.9750,34.18
1.9755,66.84
1.9760,109.9
1.9765,137
1.9770,146.2
1.9775,164.5
1.9780,203
1.9785,242.6
1.9790,267.7
1.9795,283.5
1.9800,286.6
1.9805,254.8
1.9810,184
1.9815,107.7
1.9820,53.71
1.9825,14.34
1.9830,-17.09
1.9835,-7.937
1.9840,72.33
1.9845,188.9
1.9850,268.3
1.9855,282.6
1.9860,264
1.9865,234.1
1.9870,178.8
1.9875,97.66
1.9880,28.08
1.9885,-9.158
1.9890,-42.12
1.9895,-87.59
1.9900,-108
1.9905,-63.18
1.9910,25.33
1.9915,109.3
1.9920,178.5
1.9925,240.5
1.9930,259.4
1.9935,187.1
1.9940,53.41
1.9945,-53.41
1.9950,-109
1.9955,-172.1
1.9960,-260.9
1.9965,-288.1
1.9970,-179.5
1.9975,6.712
1.9980,151.4
1.9985,214.2
1.9990,234.1
1.9995,217.9
2.0000,130.3
2.0005,-21.37
2.0010,-168.2
2.0015,-265.8
2.0020,-331.1
2.0025,-381.2
2.0030,-393.7
2.0035,-351.6
2.0040,-273.2
2.0045,-184.3
2.0050,-93.39
2.0055,-14.35
2.0060,18
2.0065,-19.23
2.0070,-122.4
2.0075,-272.8
2.0080,-436.4
2.0085,-547.8
2.0090,-552.4
2.0095,-479.5
2.0100,-427.9
2.0105,-456.9
2.0110,-517.6
2.0115,-521.9
2.0120,-443.4
2.0125,-326.6
2.0130,-217
2.0135,-127.3
2.0140,-50.36
2.0145,20.14
2.0150,89.73
2.0155,163
2.0160,236.8
2.0165,299.7
2.0170,335.1
2.0175,328.7
2.0180,281.7
2.0185,218.8
2.0190,172.1
2.0195,154.1
2.0200,155
2.0205,166
2.0210,186.2
2.0215,208.1
2.0220,217
2.0225,209.7
2.0230,200.8
2.0235,199.9
2.0240,197.2
2.0245,187.7
2.0250,185.3
2.0255,199
2.0260,210.3
2.0265,193.8
2.0270,152.6
2.0275,110.5
2.0280,81.18
2.0285,66.23
2.0290,73.85
2.0295,112
2.0300,163.3
2.0305,199.6
2.0310,217
2.0315,230.1
2.0320,231.6
2.0325,197.2
2.0330,133.4
2.0335,83.01
2.0340,62.56
2.0345,37.23
2.0350,-14.96
2.0355,-58.6
2.0360,-55.55
2.0365,-31.44
2.0370,-40.9
2.0375,-84.24
2.0380,-116
2.0385,-119.3
2.0390,-118.1
2.0395,-117.8
2.0400,-98.89
2.0405,-81.18
2.0410,-127.3
2.0415,-244.5
2.0420,-334.5
2.0425,-300.3
2.0430,-174.6
2.0435,-83.63
2.0440,-95.53
2.0445,-164.5
2.0450,-224
2.0455,-262.5
2.0460,-289
2.0465,-278.6
2.0470,-206
2.0475,-98.89
2.0480,-9.768
2.0485,49.13
2.0490,99.8
2.0495,141.6
2.0500,158.1
2.0505,165.7
2.0510,201.4
2.0515,250
2.0520,240.8
2.0525,143.7
2.0530,28.38
2.0535,-8.853
2.0540,46.08
2.0545,129.1
2.0550,176.1
2.0555,175.8
2.0560,153.5
2.0565,141.3
2.0570,155.6
2.0575,181.3
2.0580,184.6
2.0585,150.8
2.0590,102.5
2.0595,67.14
2.0600,47.61
2.0605,37.54
2.0610,40.28
2.0615,54.63
2.0620,60.12
2.0625,43.95
2.0630,20.45
2.0635,4.576
2.0640,-13.13
2.0645,-43.64
2.0650,-66.53
2.0655,-63.48
2.0660,-50.36
2.0665,-56.16
2.0670,-82.71
2.0675,-114.5
2.0680,-144.1
2.0685,-157.2
2.0690,-118.4
2.0695,-16.18
2.0700,96.13
2.0705,146.8
2.0710,126
2.0715,79.96
2.0720,39.67
2.0725,3.355
2.0730,-24.11
2.0735,-26.86
2.0740,-20.76
2.0745,-46.09
2.0750,-105.6
2.0755,-151.7
2.0760,-149.9
2.0765,-122.1
2.0770,-101
2.0775,-84.54
2.0780,-58.6
2.0785,-34.79
2.0790,-35.1
2.0795,-52.8
2.0800,-58.6
2.0805,-42.42
2.0810,-21.06
2.0815,-14.96
2.0820,-26.86
2.0825,-44.87
2.0830,-49.14
2.0835,-25.94
2.0840,14.95
2.0845,45.47
2.0850,47.91
2.0855,38.15
2.0860,38.76
2.0865,43.95
2.0870,28.38
2.0875,-5.19
2.0880,-25.94
2.0885,-15.87
2.0890,4.881
2.0895,16.17
2.0900,26.85
2.0905,49.44
2.0910,65.92
2.0915,50.35
2.0920,13.73
2.0925,-12.21
2.0930,-29.91
2.0935,-76.61
2.0940,-165.4
2.0945,-251.5
2.0950,-278.6
2.0955,-237.1
2.0960,-159.6
2.0965,-75.69
2.0970,14.65
2.0975,120.9
2.0980,226.1
2.0985,286.3
2.0990,270.7
2.0995,204.8
2.1000,150.5
2.1005,137.6
2.1010,138.9
2.1015,125.1
2.1020,119.6
2.1025,159.6
2.1030,227.1
2.1035,259.7
2.1040,225.2
2.1045,141.9
2.1050,36.62
2.1055,-74.47
2.1060,-162.7
2.1065,-197.5
2.1070,-193.2
2.1075,-201.4
2.1080,-240.5
2.1085,-280.2
2.1090,-303.7
2.1095,-335.4
2.1100,-379.4
2.1105,-390
2.1110,-340.9
2.1115,-277.4
2.1120,-253
2.1125,-245.4
2.1130,-192.3
2.1135,-88.81
2.1140,8.849
2.1145,62.56
2.1150,87.28
2.1155,102.2
2.1160,94.91
2.1165,52.19
2.1170,-7.632
2.1175,-48.22
2.1180,-51.58
2.1185,-30.83
2.1190,-9.158
2.1195,3.965
2.1200,18
2.1205,39.98
2.1210,61.65
2.1215,75.38
2.1220,89.11
2.1225,107.1
2.1230,109.6
2.1235,79.35
2.1240,42.11
2.1245,40.59
2.1250,69.58
2.1255,79.65
2.1260,52.8
2.1265,29.3
2.1270,39.67
2.1275,60.12
2.1280,59.21
2.1285,50.97
2.1290,63.17
2.1295,84.84
2.1300,81.79
2.1305,50.66
2.1310,21.97
2.1315,18.61
2.1320,31.74
2.1325,36.62
2.1330,18
2.1335,-13.13
2.1340,-28.69
2.1345,-13.43
2.1350,18
2.1355,47
2.1360,80.87
2.1365,130.9
2.1370,169.4
2.1375,154.4
2.1380,91.56
2.1385,35.4
2.1390,21.67
2.1395,36.32
2.1400,60.43
2.1405,100.1
2.1410,158.1
2.1415,212.7
2.1420,244.5
2.1425,254.8
2.1430,242.3
2.1435,192.3
2.1440,106.2
2.1445,16.17
2.1450,-50.66
2.1455,-97.97
2.1460,-134.3
2.1465,-154.4
2.1470,-153.5
2.1475,-140.1
2.1480,-113.2
2.1485,-57.07
2.1490,23.5
2.1495,81.48
2.1500,75.08
2.1505,21.67
2.1510,-24.72
2.1515,-42.42
2.1520,-54.63
2.1525,-81.18
2.1530,-104.1
2.1535,-97.66
2.1540,-64.09
2.1545,-20.14
2.1550,31.74
2.1555,94
2.1560,141.3
2.1565,138.9
2.1570,90.34
2.1575,40.59
2.1580,16.48
2.1585,-3.664
2.1590,-48.53
2.1595,-101
2.1600,-127
2.1605,-123
2.1610,-112.3
2.1615,-100.7
2.1620,-79.05
2.1625,-57.38
2.1630,-62.26
2.1635,-94.31
2.1640,-124.5
2.1645,-138
2.1650,-151.1
2.1655,-170.3
2.1660,-174
2.1665,-144.7
2.1670,-100.1
2.1675,-67.45
2.1680,-43.95
2.1685,-11.6
2.1690,27.16
2.1695,49.74
2.1700,44.86
2.1705,28.38
2.1710,21.36
2.1715,23.8
2.1720,19.84
2.1725,3.965
2.1730,-1.528
2.1735,33.57
2.1740,113.5
2.1745,201.4
2.1750,254.8
2.1755,262.5
2.1760,240.2
2.1765,199.9
2.1770,142.5
2.1775,80.26
2.1780,36.32
2.1785,18
2.1790,8.238
2.1795,-7.327
2.1800,-21.37
2.1805,-23.81
2.1810,-23.2
2.1815,-26.25
2.1820,-24.11
2.1825,-20.14
2.1830,-50.36
2.1835,-139.8
2.1840,-246.9
2.1845,-295.1
2.1850,-264.3
2.1855,-209.1
2.1860,-174.6
2.1865,-146.8
2.1870,-97.05
2.1875,-40.9
2.1880,-9.158
2.1885,2.745
2.1890,17.09
2.1895,26.55
2.1900,9.764
2.1905,-17.7
2.1910,-19.53
2.1915,7.017
2.1920,28.69
2.1925,26.24
2.1930,14.95
2.1935,9.764
2.1940,5.491
2.1945,-0.002135
2.1950,6.407
2.1955,32.35
2.1960,65
2.1965,94
2.1970,116.9
2.1975,119.9
2.1980,77.21
2.1985,-9.768
2.1990,-94.92
2.1995,-131.5
2.2000,-123.3
2.2005,-111.1
2.2010,-111.4
2.2015,-93.09
2.2020,-19.84
2.2025,97.97
2.2030,207.2
2.2035,263.7
2.2040,271.6
2.2045,260.9
2.2050,240.2
2.2055,189.5
2.2060,104.4
2.2065,20.14
2.2070,-20.14
2.2075,-14.65
2.2080,1.219
2.2085,-0.9177
2.2090,-22.89
2.2095,-55.55
2.2100,-97.36
2.2105,-136.4
2.2110,-138
2.2115,-76.61
2.2120,25.02
2.2125,109
2.2130,137.6
2.2135,127
2.2140,110.2
2.2145,96.74
2.2150,74.47
2.2155,38.15
2.2160,-8.853
2.2165,-73.25
2.2170,-154.7
2.2175,-216.1
2.2180,-204.2
2.2185,-121.2
2.2190,-36.32
2.2195,-12.52
2.2200,-42.73
2.2205,-83.63
2.2210,-119.3
2.2215,-156
2.2220,-179.8
2.2225,-166.9
2.2230,-130.3
2.2235,-104.7
2.2240,-88.81
2.2245,-47.61
2.2250,20.45
2.2255,68.36
2.2260,68.36
2.2265,50.97
2.2270,45.47
2.2275,30.82
2.2280,-18.92
2.2285,-74.77
2.2290,-88.2
2.2295,-61.65
2.2300,-35.71
2.2305,-25.33
2.2310,-14.65
2.2315,-4.275
2.2320,-11.29
2.2325,-27.16
2.2330,-22.28
2.2335,-0.002135
2.2340,-0.002135
2.2345,-32.05
2.2350,-55.85
2.2355,-37.54
2.2360,1.219
2.2365,21.67
2.2370,21.06
2.2375,24.11
2.2380,35.4
2.2385,38.15
2.2390,30.82
2.2395,32.65
2.2400,51.58
2.2405,64.39
2.2410,48.22
2.2415,19.84
2.2420,21.36
2.2425,62.87
2.2430,96.44
2.2435,68.06
2.2440,-13.74
2.2445,-88.51
2.2450,-116.3
2.2455,-114.8
2.2460,-112
2.2465,-101
2.2470,-61.96
2.2475,-0.9177
2.2480,57.37
2.2485,98.27
2.2490,115.7
2.2495,110.2
2.2500,106.8
2.2505,143.7
2.2510,222.5
2.2515,288.1
2.2520,297.6
2.2525,278
2.2530,281.7
2.2535,307
2.2540,307.6
2.2545,264.6
2.2550,200.8
2.2555,133.4
2.2560,58.29
2.2565,-16.18
2.2570,-65.92
2.2575,-83.02
2.2580,-84.54
2.2585,-84.85
2.2590,-80.27
2.2595,-68.67
2.2600,-57.68
2.2605,-52.19
2.2610,-55.24
2.2615,-70.81
2.2620,-92.17
2.2625,-90.64
2.2630,-46.09
2.2635,17.39
2.2640,54.32
2.2645,48.83
2.2650,28.69
2.2655,23.19
2.2660,36.01
2.2665,54.02
2.2670,64.7
2.2675,60.43
2.2680,46.69
2.2685,36.93
2.2690,29.91
2.2695,-6.716
2.2700,-101.6
2.2705,-231.9
2.2710,-333
2.2715,-353.4
2.2720,-292.1
2.2725,-183.7
2.2730,-75.08
2.2735,-7.632
2.2740,2.134
2.2745,-28.08
2.2750,-67.14
2.2755,-96.44
2.2760,-112
2.2765,-105
2.2770,-65.62
2.2775,-7.937
2.2780,32.65
2.2785,37.23
2.2790,27.77
2.2795,44.56
2.2800,105
2.2805,182.5
2.2810,227.1
2.2815,202
2.2820,116.9
2.2825,22.58
2.2830,-30.83
2.2835,-36.93
2.2840,-23.2
2.2845,-13.74
2.2850,-10.38
2.2855,-10.68
2.2860,-18.92
2.2865,-32.35
2.2870,-38.46
2.2875,-30.22
2.2880,-19.23
2.2885,-16.79
2.2890,-19.53
2.2895,-20.45
2.2900,-20.14
2.2905,-19.23
2.2910,-10.68
2.2915,7.017
2.2920,23.19
2.2925,31.43
2.2930,40.89
2.2935,58.6
2.2940,74.47
2.2945,80.87
2.2950,85.45
2.2955,90.95
2.2960,78.43
2.2965,41.81
2.2970,21.97
2.2975,62.26
2.2980,138.6
2.2985,177.9
2.2990,148
2.2995,88.5
2.3000,41.2
2.3005,-3.664
2.3010,-68.37
2.3015,-134.9
2.3020,-168.8
2.3025,-170.6
2.3030,-161.8
2.3035,-147.1
2.3040,-122.4
2.3045,-109.6
2.3050,-131.8
2.3055,-168.2
2.3060,-178.2
2.3065,-171.2
2.3070,-203.3
2.3075,-290.5
2.3080,-371.1
2.3085,-381.5
2.3090,-326.9
2.3095,-254.2
2.3100,-186.5
2.3105,-120.2
2.3110,-59.21
2.3115,-11.29
2.3120,36.32
2.3125,97.97
2.3130,155
2.3135,178.2
2.3140,177.9
2.3145,196.2
2.3150,249.6
2.3155,307.9
2.3160,337.8
2.3165,335.1
2.3170,304
2.3175,235.9
2.3180,128.2
2.3185,10.98
2.3190,-69.28
2.3195,-99.8
2.3200,-108.7
2.3205,-128.8
2.3210,-156
2.3215,-154.4
2.3220,-107.1
2.3225,-41.51
2.3230,8.238
2.3235,42.11
2.3240,76.3
2.3245,96.13
2.3250,65.61
2.3255,-6.106
2.3260,-56.77
2.3265,-41.2
2.3270,11.6
2.3275,45.78
2.3280,51.27
2.3285,59.51
2.3290,83.32
2.3295,105.6
2.3300,117.2
2.3305,133.1
2.3310,160.5
2.3315,181.6
2.3320,173.7
2.3325,132.1
2.3330,66.23
2.3335,-7.632
2.3340,-66.23
2.3345,-87.9
2.3350,-71.11
2.3355,-37.54
2.3360,-9.463
2.3365,3.05
2.3370,-0.3073
2.3375,-21.67
2.3380,-55.55
2.3385,-81.18
2.3390,-78.74
2.3395,-52.5
2.3400,-30.22
2.3405,-30.83
2.3410,-43.34
2.3415,-45.17
2.3420,-31.13
2.3425,-14.35
2.3430,-3.97
2.3435,2.745
2.3440,4.576
2.3445,-7.327
2.3450,-31.13
2.3455,-48.83
2.3460,-53.11
2.3465,-57.38
2.3470,-72.03
2.3475,-85.76
2.3480,-80.88
2.3485,-57.38
2.3490,-24.42
2.3495,10.98
2.3500,40.89
2.3505,50.66
2.3510,39.37
2.3515,31.43
2.3520,45.78
2.3525,68.97
2.3530,74.47
2.3535,57.98
2.3540,32.96
2.3545,5.797
2.3550,-23.5
2.3555,-42.73
2.3560,-36.02
2.3565,-16.18
2.3570,-14.35
2.3575,-41.81
2.3580,-76
2.3585,-91.56
2.3590,-84.24
2.3595,-64.4
2.3600,-43.34
2.3605,-29
2.3610,-21.98
2.3615,-10.68
2.3620,17.39
2.3625,63.17
2.3630,114.1
2.3635,153.8
2.3640,166
2.3645,138.6
2.3650,79.04
2.3655,13.12
2.3660,-39.98
2.3665,-85.15
2.3670,-127.6
2.3675,-150.8
2.3680,-138.3
2.3685,-104.1
2.3690,-79.05
2.3695,-71.11
2.3700,-65.62
2.3705,-57.07
2.3710,-47.31
2.3715,-17.4
2.3720,66.23
2.3725,203
2.3730,336.6
2.3735,400.7
2.3740,371.7
2.3745,273.5
2.3750,145.9
2.3755,21.36
2.3760,-78.74
2.3765,-141.3
2.3770,-160.8
2.3775,-143.4
2.3780,-106.2
2.3785,-68.37
2.3790,-42.42
2.3795,-37.85
2.3800,-61.35
2.3805,-105.6
2.3810,-136.1
2.3815,-115.7
2.3820,-49.14
2.3825,16.78
2.3830,48.22
2.3835,55.85
2.3840,63.78
2.3845,65.31
2.3850,43.34
2.3855,5.797
2.3860,-21.67
2.3865,-40.29
2.3870,-75.69
2.3875,-132.2
2.3880,-174.9
2.3885,-168.5
2.3890,-119.6
2.3895,-62.57
2.3900,-19.53
2.3905,12.51
2.3910,35.1
2.3915,26.85
2.3920,-31.13
2.3925,-117.2
2.3930,-169.1
2.3935,-138.6
2.3940,-39.68
2.3945,66.84
2.3950,133.1
2.3955,154.4
2.3960,150.8
2.3965,135.5
2.3970,111.1
2.3975,83.01
2.3980,60.73
2.3985,46.08
2.3990,34.18
2.3995,19.23
2.4000,4.576
2.4005,-4.275
2.4010,-8.548
2.4015,-13.13
2.4020,-20.14
2.4025,-26.86
2.4030,-34.18
2.4035,-45.48
2.4040,-54.94
2.4045,-44.56
2.4050,-7.937
2.4055,33.26
2.4060,52.19
2.4065,47.61
2.4070,42.73
2.4075,50.05
2.4080,59.21
2.4085,58.29
2.4090,52.19
2.4095,51.88
2.4100,57.37
2.4105,62.56
2.4110,61.65
2.4115,53.71
2.4120,39.98
2.4125,27.16
2.4130,20.14
2.4135,17.7
2.4140,16.48
2.4145,22.28
2.4150,40.59
2.4155,65.31
2.4160,81.18
2.4165,80.87
2.4170,69.28
2.4175,52.19
2.4180,36.01
2.4185,28.69
2.4190,29.3
2.4195,22.58
2.4200,-4.58
2.4205,-43.34
2.4210,-74.16
2.4215,-93.39
2.4220,-110.5
2.4225,-120.2
2.4230,-104.1
2.4235,-62.26
2.4240,-22.89
2.4245,-7.327
2.4250,-8.853
2.4255,-10.68
2.4260,-7.327
2.4265,-3.97
2.4270,-2.444
2.4275,-5.19
2.4280,-18.92
2.4285,-44.56
2.4290,-68.98
2.4295,-77.83
2.4300,-68.06
2.4305,-47
2.4310,-23.81
2.4315,-6.106
2.4320,3.965
2.4325,13.73
2.4330,29.6
2.4335,45.47
2.4340,45.47
2.4345,25.63
2.4350,2.134
2.4355,-5.496
2.4360,3.355
2.4365,19.53
2.4370,37.23
2.4375,59.21
2.4380,84.84
2.4385,108
2.4390,120.2
2.4395,113.5
2.4400,86.98
2.4405,50.66
2.4410,21.36
2.4415,4.881
2.4420,-8.242
2.4425,-25.94
2.4430,-37.24
2.4435,-28.69
2.4440,-12.21
2.4445,-15.57
2.4450,-40.29
2.4455,-55.85
2.4460,-46.7
2.4465,-41.51
2.4470,-73.55
2.4475,-123.6
2.4480,-140.4
2.4485,-109.3
2.4490,-68.98
2.4495,-50.05
2.4500,-35.4
2.4505,-0.002135
2.4510,42.11
2.4515,57.68
2.4520,47
2.4525,42.73
2.4530,61.65
2.4535,84.54
2.4540,86.06
2.4545,62.26
2.4550,23.19
2.4555,-21.98
2.4560,-61.65
2.4565,-77.22
2.4570,-59.52
2.4575,-25.33
2.4580,-8.853
2.4585,-25.33
2.4590,-56.16
2.4595,-69.28
2.4600,-57.99
2.4605,-47.61
2.4610,-62.87
2.4615,-93.39
2.4620,-109.3
2.4625,-96.75
2.4630,-66.53
2.4635,-28.69
2.4640,18.61
2.4645,73.55
2.4650,116.6
2.4655,127.9
2.4660,107.7
2.4665,73.24
2.4670,41.5
2.4675,16.78
2.4680,-9.768
2.4685,-43.34
2.4690,-68.37
2.4695,-57.99
2.4700,-11.29
2.4705,34.18
2.4710,40.89
2.4715,14.95
2.4720,-10.99
2.4725,-22.89
2.4730,-25.03
2.4735,-5.801
2.4740,55.85
2.4745,141
2.4750,188.6
2.4755,166.9
2.4760,119.3
2.4765,107.1
2.4770,136.7
2.4775,160.5
2.4780,142.2
2.4785,86.06
2.4790,15.26
2.4795,-54.02
2.4800,-115.1
2.4805,-160.8
2.4810,-188.6
2.4815,-199
2.4820,-193.5
2.4825,-173
2.4830,-142.8
2.4835,-115.7
2.4840,-106.2
2.4845,-116.6
2.4850,-125.7
2.4855,-104.1
2.4860,-50.66
2.4865,-3.359
2.4870,3.66
2.4875,-13.43
2.4880,-13.13
2.4885,16.48
2.4890,43.34
2.4895,39.06
2.4900,15.87
2.4905,1.829
2.4910,5.186
2.4915,14.65
2.4920,20.14
2.4925,18.92
2.4930,10.68
2.4935,-3.054
2.4940,-18.92
2.4945,-29.91
2.4950,-31.74
2.4955,-27.47
2.4960,-29.61
2.4965,-51.58
2.4970,-84.85
2.4975,-96.44
2.4980,-65.01
2.4985,-8.853
2.4990,37.84
2.4995,66.84
2.5000,92.17
2.5005,112.3
2.5010,107.1
2.5015,76.3
2.5020,46.69
2.5025,36.93
2.5030,37.84
2.5035,35.71
2.5040,36.93
2.5045,48.83
2.5050,57.68
2.5055,45.78
2.5060,15.26
2.5065,-13.43
2.5070,-25.03
2.5075,-16.18
2.5080,9.154
2.5085,40.89
2.5090,62.87
2.5095,66.84
2.5100,59.82
2.5105,54.02
2.5110,51.58
2.5115,44.86
2.5120,29.6
2.5125,10.68
2.5130,-2.749
2.5135,-3.664
2.5140,9.154
2.5145,29.6
2.5150,47.3
2.5155,57.68
2.5160,60.12
2.5165,50.05
2.5170,23.8
2.5175,-13.13
2.5180,-44.87
2.5185,-59.82
2.5190,-60.13
2.5195,-55.24
2.5200,-50.97
2.5205,-47.92
2.5210,-43.95
2.5215,-35.4
2.5220,-21.98
2.5225,-8.548
2.5230,-0.6125
2.5235,-0.002135
2.5240,-1.833
2.5245,-2.749
2.5250,-3.359
2.5255,-4.275
2.5260,-4.885
2.5265,-3.664
2.5270,-2.138
2.5275,-0.3073
2.5280,2.439
2.5285,9.154
2.5290,18.92
2.5295,28.99
2.5300,33.26
2.5305,28.08
2.5310,15.87
2.5315,3.355
2.5320,-4.58
2.5325,-7.327
2.5330,-5.19
2.5335,-0.3073
2.5340,-0.002135
2.5345,-9.768
2.5350,-25.94
2.5355,-36.93
2.5360,-37.85
2.5365,-34.18
2.5370,-31.13
2.5375,-24.42
2.5380,-10.68
2.5385,5.797
2.5390,19.84
2.5395,29.91
2.5400,37.23
2.5405,41.81
2.5410,45.78
2.5415,51.27
2.5420,55.85
2.5425,52.19
2.5430,41.81
2.5435,36.93
2.5440,45.78
2.5445,61.95
2.5450,72.33
2.5455,70.19
2.5460,56.15
2.5465,32.04
2.5470,2.134
2.5475,-24.11
2.5480,-41.51
2.5485,-50.05
2.5490,-51.27
2.5495,-45.17
2.5500,-33.88
2.5505,-22.59
2.5510,-13.74
2.5515,-5.496
2.5520,-4.885
2.5525,-22.28
2.5530,-55.85
2.5535,-89.12
2.5540,-111.7
2.5545,-127
2.5550,-134.9
2.5555,-122.7
2.5560,-84.85
2.5565,-41.81
2.5570,-19.53
2.5575,-19.53
2.5580,-22.59
2.5585,-17.09
2.5590,-4.275
2.5595,14.65
2.5600,41.2
2.5605,67.14
2.5610,76.6
2.5615,63.17
2.5620,34.48
2.5625,2.745
2.5630,-21.67
2.5635,-30.52
2.5640,-20.14
2.5645,-1.223
2.5650,10.37
2.5655,13.12
2.5660,15.26
2.5665,19.23
2.5670,19.23
2.5675,16.17
2.5680,21.06
2.5685,36.01
2.5690,47.61
2.5695,45.17
2.5700,36.32
2.5705,34.48
2.5710,39.37
2.5715,38.76
2.5720,28.69
2.5725,16.78
2.5730,10.68
2.5735,7.933
2.5740,4.271
2.5745,0.6083
2.5750,-0.3073
2.5755,-1.528
2.5760,-7.022
2.5765,-14.96
2.5770,-18.62
2.5775,-17.4
2.5780,-21.06
2.5785,-38.76
2.5790,-63.79
2.5795,-78.44
2.5800,-70.81
2.5805,-48.53
2.5810,-28.69
2.5815,-19.84
2.5820,-17.09
2.5825,-14.35
2.5830,-10.99
2.5835,-9.463
2.5840,-7.937
2.5845,-3.664
2.5850,1.219
2.5855,2.439
2.5860,-0.6125
2.5865,-4.58
2.5870,-6.106
2.5875,-6.106
2.5880,-3.054
2.5885,4.576
2.5890,11.29
2.5895,5.186
2.5900,-17.4
2.5905,-43.95
2.5910,-57.99
2.5915,-55.55
2.5920,-44.26
2.5925,-32.05
2.5930,-20.14
2.5935,-7.327
2.5940,5.186
2.5945,17.39
2.5950,27.77
2.5955,34.79
2.5960,40.89
2.5965,50.97
2.5970,65.61
2.5975,77.82
2.5980,81.18
2.5985,75.08
2.5990,64.39
2.5995,54.32
2.6000,49.13
2.6005,50.35
2.6010,50.97
2.6015,41.5
2.6020,25.63
2.6025,17.39
2.6030,23.19
2.6035,32.96
2.6040,34.18
2.6045,27.77
2.6050,20.45
2.6055,12.51
2.6060,0.9134
2.6065,-10.07
2.6070,-16.79
2.6075,-22.28
2.6080,-29.91
2.6085,-35.4
2.6090,-31.74
2.6095,-20.14
2.6100,-8.853
2.6105,-2.138
2.6110,1.829
2.6115,4.271
2.6120,3.05
2.6125,-1.833
2.6130,-11.6
2.6135,-25.64
2.6140,-38.76
2.6145,-42.73
2.6150,-36.02
2.6155,-26.25
2.6160,-21.67
2.6165,-20.14
2.6170,-15.87
2.6175,-9.158
2.6180,-5.496
2.6185,-4.885
2.6190,-2.749
2.6195,-0.002135
2.6200,0.6083
2.6205,-0.9177
2.6210,-1.528
2.6215,-0.002135
2.6220,1.219
2.6225,0.3031
2.6230,-0.3073
2.6235,0.3031
2.6240,1.524
2.6245,1.524
2.6250,1.219
2.6255,1.524
2.6260,1.219
2.6265,0.3031
2.6270,-0.3073
2.6275,-0.3073
2.6280,-0.002135
2.6285,-0.002135
2.6290,-0.3073
2.6295,-0.6125
2.6300,-0.6125
2.6305,-0.3073
2.6310,-0.6125
2.6315,-1.223
2.6320,-2.138
2.6325,-3.054
2.6330,-4.275
2.6335,-5.19
2.6340,-3.97
2.6345,0.3031
2.6350,6.102
2.6355,9.764
2.6360,10.07
2.6365,8.543
2.6370,7.628
2.6375,7.628
2.6380,8.238
2.6385,8.543
2.6390,7.628
2.6395,5.797
2.6400,4.881
2.6405,4.576
2.6410,2.439
2.6415,-1.528
2.6420,-4.275
2.6425,-2.749
2.6430,-0.3073
2.6435,-2.749
2.6440,-8.548
2.6445,-11.9
2.6450,-11.6
2.6455,-15.26
2.6460,-29.3
2.6465,-49.44
2.6470,-63.79
2.6475,-65.31
2.6480,-56.77
2.6485,-45.48
2.6490,-35.4
2.6495,-24.72
2.6500,-12.21
2.6505,-0.002135
2.6510,9.459
2.6515,17.39
2.6520,26.85
2.6525,38.15
2.6530,47.91
2.6535,53.41
2.6540,55.24
2.6545,53.71
2.6550,47.3
2.6555,38.45
2.6560,33.57
2.6565,36.32
2.6570,41.2
2.6575,39.37
2.6580,30.21
2.6585,20.14
2.6590,14.95
2.6595,11.6
2.6600,7.017
2.6605,0.9134
2.6610,-3.97
2.6615,-6.411
2.6620,-6.411
2.6625,-5.19
2.6630,-4.58
2.6635,-5.496
2.6640,-5.496
2.6645,-2.444
2.6650,2.134
2.6655,3.66
2.6660,0.6083
2.6665,-4.58
2.6670,-9.768
2.6675,-13.43
2.6680,-15.87
2.6685,-15.26
2.6690,-12.52
2.6695,-10.07
2.6700,-9.158
2.6705,-7.937
2.6710,-4.885
2.6715,-2.138
2.6720,-1.833
2.6725,-2.444
2.6730,-2.138
2.6735,-1.833
2.6740,-4.275
2.6745,-7.937
2.6750,-8.242
2.6755,-4.885
2.6760,-2.749
2.6765,-4.58
2.6770,-7.937
2.6775,-8.853
2.6780,-7.937
2.6785,-7.632
2.6790,-8.242
2.6795,-8.853
2.6800,-10.38
2.6805,-13.13
2.6810,-15.87
2.6815,-16.18
2.6820,-14.35
2.6825,-11.6
2.6830,-10.38
2.6835,-11.6
2.6840,-14.35
2.6845,-13.43
2.6850,-5.19
2.6855,8.238
2.6860,17.39
2.6865,15.87
2.6870,9.459
2.6875,6.712
2.6880,7.933
2.6885,5.186
2.6890,-4.885
2.6895,-17.4
2.6900,-25.33
2.6905,-26.86
2.6910,-23.5
2.6915,-18.01
2.6920,-12.82
2.6925,-10.68
2.6930,-10.07
2.6935,-7.937
2.6940,-3.359
2.6945,0.3031
2.6950,2.745
2.6955,6.712
2.6960,13.73
2.6965,20.45
2.6970,22.58
2.6975,20.14
2.6980,16.17
2.6985,11.29
2.6990,5.797
2.6995,-0.002135
2.7000,-2.444
2.7005,-1.528
2.7010,1.524
2.7015,3.66
2.7020,4.576
2.7025,6.102
2.7030,8.849
2.7035,10.37
2.7040,8.543
2.7045,3.66
2.7050,0.3031
2.7055,-0.002135
2.7060,1.219
2.7065,1.219
2.7070,-0.002135
2.7075,-0.002135
2.7080,0.9134
2.7085,2.439
2.7090,2.745
2.7095,1.829
2.7100,0.3031
2.7105,-0.6125
2.7110,-0.9177
2.7115,-0.6125
2.7120,-0.3073
2.7125,-0.3073
2.7130,-0.6125
2.7135,-0.3073
2.7140,-0.002135
2.7145,-0.002135
2.7150,-0.002135
2.7155,-0.002135
2.7160,-0.3073
2.7165,-0.6125
2.7170,-0.3073
2.7175,-0.002135
2.7180,-0.002135
2.7185,-0.3073
2.7190,-0.6125
2.7195,-0.002135
2.7200,0.6083
2.7205,1.219
2.7210,0.9134
2.7215,0.3031
2.7220,-0.002135
2.7225,-0.002135
2.7230,-0.002135
2.7235,-0.3073
2.7240,-0.9177
2.7245,-0.3073
2.7250,0.9134
2.7255,2.134
2.7260,1.829
2.7265,0.9134
2.7270,0.9134
2.7275,1.829
2.7280,1.829
2.7285,0.6083
2.7290,-0.3073
2.7295,-0.6125
2.7300,-0.002135
2.7305,0.3031
2.7310,0.6083
2.7315,0.3031
2.7320,-0.002135
2.7325,-0.002135
2.7330,0.9134
2.7335,1.524
2.7340,1.219
2.7345,-0.002135
2.7350,-0.3073
2.7355,-0.002135
2.7360,0.9134
2.7365,1.219
2.7370,0.9134
2.7375,0.6083
2.7380,1.524
2.7385,1.829
2.7390,0.6083
2.7395,-0.6125
2.7400,-0.6125
2.7405,0.9134
2.7410,2.745
2.7415,3.05
2.7420,2.134
2.7425,1.219
2.7430,-0.002135
2.7435,-1.223
2.7440,-2.138
2.7445,-0.9177
2.7450,1.219
2.7455,2.439
2.7460,2.134
2.7465,1.219
2.7470,0.9134
2.7475,0.9134
2.7480,1.219
2.7485,0.9134
2.7490,0.9134
2.7495,0.6083
2.7500,0.3031
2.7505,-0.002135
2.7510,-0.6125
2.7515,-0.9177
2.7520,-1.223
2.7525,-1.223
2.7530,-0.6125
2.7535,-0.002135
2.7540,-0.002135
2.7545,-0.002135
2.7550,-0.002135
2.7555,-0.3073
2.7560,-0.9177
2.7565,-1.223
2.7570,-0.9177
2.7575,-0.002135
2.7580,0.3031
2.7585,-0.002135
2.7590,-0.002135
2.7595,0.6083
2.7600,2.134
2.7605,4.271
2.7610,5.491
2.7615,5.186
2.7620,3.965
2.7625,2.134
2.7630,0.9134
2.7635,0.3031
2.7640,0.6083
2.7645,0.6083
2.7650,0.6083
2.7655,0.9134
2.7660,0.6083
2.7665,-0.6125
2.7670,-2.444
2.7675,-3.054
2.7680,-2.444
2.7685,-2.138
2.7690,-3.664
2.7695,-5.801
2.7700,-6.106
2.7705,-4.58
2.7710,-3.054
2.7715,-3.359
2.7720,-4.275
2.7725,-4.58
2.7730,-3.664
2.7735,-2.749
2.7740,-0.9177
2.7745,1.524
2.7750,6.102
2.7755,10.98
2.7760,13.73
2.7765,11.9
2.7770,6.407
2.7775,1.219
2.7780,-0.6125
2.7785,0.6083
2.7790,2.745
2.7795,3.05
2.7800,1.829
2.7805,0.9134
2.7810,0.6083
2.7815,0.6083
2.7820,0.9134
2.7825,1.829
2.7830,3.05
2.7835,4.271
2.7840,3.66
2.7845,2.439
2.7850,1.219
2.7855,-0.002135
2.7860,-0.9177
2.7865,-1.833
2.7870,-2.138
2.7875,-1.833
2.7880,-1.833
2.7885,-1.528
2.7890,-1.528
2.7895,-1.528
2.7900,-1.833
2.7905,-2.138
2.7910,-1.528
2.7915,-0.3073
2.7920,0.3031
2.7925,-0.002135
2.7930,-1.223
2.7935,-1.528
2.7940,-1.223
2.7945,-1.223
2.7950,-2.138
2.7955,-2.138
2.7960,-0.9177
2.7965,-0.002135
2.7970,-0.002135
2.7975,-0.6125
2.7980,-0.9177
2.7985,-0.6125
2.7990,-1.223
2.7995,-3.054
2.8000,-4.275
2.8005,-3.97
2.8010,-2.444
2.8015,-0.6125
2.8020,0.6083
2.8025,1.829
2.8030,2.745
2.8035,3.355
2.8040,3.355
2.8045,3.355
2.8050,3.05
2.8055,2.439
2.8060,1.219
2.8065,-0.002135
2.8070,-0.9177
2.8075,-1.528
2.8080,-1.223
2.8085,-0.3073
2.8090,-0.002135
2.8095,-0.3073
2.8100,-1.528
2.8105,-1.223
2.8110,-0.3073
2.8115,-0.3073
2.8120,-1.833
2.8125,-2.749
2.8130,-2.749
2.8135,-2.138
2.8140,-1.528
2.8145,-0.6125
2.8150,-0.002135
2.8155,-0.002135
2.8160,-1.223
2.8165,-1.528
2.8170,-0.002135
2.8175,0.9134
2.8180,-0.002135
2.8185,-2.749
2.8190,-3.664
2.8195,-1.833
2.8200,-0.3073
2.8205,-0.6125
2.8210,-2.138
2.8215,-1.833
2.8220,-0.9177
2.8225,-0.9177
2.8230,-2.444
2.8235,-3.359
2.8240,-1.833
2.8245,-0.002135
2.8250,-0.002135
2.8255,-0.9177
2.8260,-1.223
2.8265,-0.3073
2.8270,-0.002135
2.8275,-0.3073
2.8280,-1.223
2.8285,-1.528
2.8290,-0.9177
2.8295,-0.9177
2.8300,-0.6125
2.8305,-0.002135
2.8310,0.6083
2.8315,0.3031
2.8320,-0.6125
2.8325,-0.9177
2.8330,-0.002135
2.8335,-0.002135
2.8340,-0.002135
2.8345,-0.3073
2.8350,-0.002135
2.8355,0.3031
2.8360,-0.002135
2.8365,-0.6125
2.8370,-0.002135
2.8375,0.6083
2.8380,-0.002135
2.8385,-1.223
2.8390,-0.9177
2.8395,0.3031
2.8400,0.9134
2.8405,-0.3073
2.8410,-2.138
2.8415,-1.528
2.8420,0.3031
2.8425,0.9134
2.8430,-0.002135
2.8435,-0.6125
2.8440,-0.002135
2.8445,0.6083
2.8450,0.9134
2.8455,0.6083
2.8460,0.3031
2.8465,-0.002135
2.8470,-0.002135
2.8475,-0.3073
2.8480,-0.3073
2.8485,-0.3073
2.8490,-0.3073
2.8495,-0.9177
2.8500,-0.9177
2.8505,-0.3073
2.8510,-0.002135
2.8515,-0.002135
2.8520,-0.002135
2.8525,-0.6125
2.8530,-0.3073
2.8535,0.3031
2.8540,0.6083
2.8545,-0.002135
2.8550,-0.002135
2.8555,-0.002135
2.8560,0.9134
2.8565,0.9134
2.8570,0.6083
2.8575,0.6083
2.8580,1.219
2.8585,1.829
2.8590,1.524
2.8595,0.9134
2.8600,0.6083
2.8605,1.219
2.8610,1.219
2.8615,0.9134
2.8620,-0.002135
2.8625,-0.3073
2.8630,-0.3073
2.8635,-0.3073
2.8640,-0.6125
2.8645,-0.3073
2.8650,0.9134
2.8655,2.439
2.8660,2.745
2.8665,1.524
2.8670,-0.002135
2.8675,-0.002135
2.8680,0.6083
2.8685,0.9134
2.8690,-0.002135
2.8695,-0.9177
2.8700,-1.223
2.8705,-0.6125
2.8710,-0.002135
2.8715,0.3031
2.8720,-0.002135
2.8725,-0.6125
2.8730,-0.9177
2.8735,0.3031
2.8740,2.134
2.8745,2.134
2.8750,1.219
2.8755,0.9134
2.8760,1.829
2.8765,2.439
2.8770,1.524
2.8775,0.3031
2.8780,0.6083
2.8785,1.219
2.8790,0.9134
2.8795,0.6083
2.8800,1.219
2.8805,1.524
2.8810,0.9134
2.8815,-0.3073
2.8820,-0.6125
2.8825,-0.002135
2.8830,0.3031
2.8835,-0.002135
2.8840,0.3031
2.8845,1.219
2.8850,1.524
2.8855,0.9134
2.8860,0.3031
2.8865,0.6083
2.8870,1.219
2.8875,1.219
2.8880,0.9134
2.8885,-0.002135
2.8890,-0.6125
2.8895,-0.6125
2.8900,-0.6125
2.8905,-0.6125
2.8910,-0.3073
2.8915,-0.002135
2.8920,0.3031
2.8925,-0.6125
2.8930,-2.138
2.8935,-1.528
2.8940,-0.002135
2.8945,0.9134
2.8950,-0.002135
2.8955,-0.3073
2.8960,0.3031
2.8965,0.9134
2.8970,0.6083
2.8975,-0.002135
2.8980,0.3031
2.8985,0.3031
2.8990,-0.3073
2.8995,-0.9177
2.9000,-0.3073
2.9005,0.3031
2.9010,0.3031
2.9015,-0.6125
2.9020,-0.6125
2.9025,-0.3073
2.9030,-0.002135
2.9035,-0.002135
2.9040,0.3031
2.9045,1.829
2.9050,2.439
2.9055,1.829
2.9060,0.3031
2.9065,-0.3073
2.9070,-0.9177
2.9075,-0.9177
2.9080,-0.6125
2.9085,-0.3073
2.9090,-0.002135
2.9095,-0.3073
2.9100,-0.9177
2.9105,-1.223
2.9110,-0.6125
2.9115,0.6083
2.9120,1.524
2.9125,0.9134
2.9130,-0.002135
2.9135,-0.3073
2.9140,-0.002135
2.9145,-0.002135
2.9150,-0.9177
2.9155,-0.9177
2.9160,0.6083
2.9165,1.829
2.9170,0.3031
2.9175,-1.223
2.9180,-1.223
2.9185,-0.002135
2.9190,0.9134
2.9195,-0.002135
2.9200,-0.6125
2.9205,-0.3073
2.9210,0.6083
2.9215,0.3031
2.9220,-0.002135
2.9225,-0.6125
2.9230,-0.9177
2.9235,-0.9177
2.9240,-0.6125
2.9245,0.3031
2.9250,0.9134
2.9255,0.6083
2.9260,0.3031
2.9265,0.9134
2.9270,1.524
2.9275,0.6083
2.9280,-0.002135
2.9285,-0.002135
2.9290,0.9134
2.9295,0.9134
2.9300,-0.002135
2.9305,-0.002135
2.9310,0.9134
2.9315,1.524
2.9320,1.219
2.9325,1.219
2.9330,1.219
2.9335,0.9134
2.9340,-0.002135
2.9345,-0.9177
2.9350,-1.223
2.9355,-1.223
2.9360,-1.833
2.9365,-2.138
2.9370,-1.833
2.9375,-0.9177
2.9380,-0.3073
2.9385,-0.6125
2.9390,-1.223
2.9395,-1.833
2.9400,-2.444
2.9405,-2.444
2.9410,-1.833
2.9415,-0.3073
2.9420,0.3031
2.9425,0.3031
2.9430,-0.3073
2.9435,-0.9177
2.9440,-0.6125
2.9445,-0.002135
2.9450,0.9134
2.9455,1.524
2.9460,1.829
2.9465,1.829
2.9470,1.524
2.9475,0.6083
2.9480,-0.002135
2.9485,-0.002135
2.9490,-0.002135
2.9495,-0.6125
2.9500,-1.528
2.9505,-1.223
2.9510,-0.6125
2.9515,-0.6125
2.9520,-0.9177
2.9525,-1.223
2.9530,-1.223
2.9535,-0.3073
2.9540,-0.002135
2.9545,-0.002135
2.9550,-0.9177
2.9555,-1.833
2.9560,-0.6125
2.9565,1.524
2.9570,2.439
2.9575,0.9134
2.9580,-0.6125
2.9585,-0.6125
2.9590,-0.002135
2.9595,-0.3073
2.9600,-1.833
2.9605,-1.833
2.9610,-0.002135
2.9615,-0.002135
2.9620,-1.528
2.9625,-3.054
2.9630,-2.138
2.9635,-0.6125
2.9640,-0.3073
2.9645,-1.223
2.9650,-0.9177
2.9655,-0.002135
2.9660,0.6083
2.9665,-0.002135
2.9670,-0.6125
2.9675,-0.9177
2.9680,-0.9177
2.9685,-0.9177
2.9690,-0.6125
2.9695,-0.002135
2.9700,-0.3073
2.9705,-0.6125
2.9710,-0.3073
2.9715,0.3031
2.9720,-0.002135
2.9725,-1.223
2.9730,-2.749
2.9735,-2.444
2.9740,-1.223
2.9745,-0.6125
2.9750,-1.223
2.9755,-1.833
2.9760,-1.528
2.9765,-1.223
2.9770,-0.9177
2.9775,-1.223
2.9780,-1.528
2.9785,-2.444
2.9790,-2.444
2.9795,-1.528
2.9800,-0.002135
2.9805,1.219
2.9810,1.219
2.9815,0.3031
2.9820,-0.002135
2.9825,0.3031
2.9830,1.219
2.9835,0.9134
2.9840,-0.6125
2.9845,-1.833
2.9850,-0.6125
2.9855,1.829
2.9860,2.745
2.9865,0.3031
2.9870,-1.528
2.9875,-0.9177
2.9880,0.6083
2.9885,1.524
2.9890,0.6083
2.9895,0.3031
2.9900,0.9134
2.9905,1.219
2.9910,0.9134
2.9915,0.3031
2.9920,-0.002135
2.9925,0.3031
2.9930,-0.002135
2.9935,-0.3073
2.9940,-0.9177
2.9945,-1.528
2.9950,-1.223
2.9955,-0.9177
2.9960,-0.9177
2.9965,-0.9177
2.9970,-0.3073
2.9975,0.3031
2.9980,-0.002135
2.9985,-1.223
2.9990,-0.9177
2.9995,1.219
3.0000,3.355
3.0005,2.745
3.0010,0.9134
3.0015,-0.002135
3.0020,0.6083
3.0025,1.219
3.0030,1.829
3.0035,2.745
3.0040,2.745
3.0045,0.9134
3.0050,-0.6125
3.0055,-0.002135
3.0060,1.219
3.0065,1.219
3.0070,0.3031
3.0075,0.6083
3.0080,1.524
3.0085,1.524
3.0090,0.6083
3.0095,0.9134
3.0100,1.524
3.0105,1.219
3.0110,0.3031
3.0115,-0.002135
3.0120,-0.002135
3.0125,-1.528
3.0130,-2.749
3.0135,-1.528
3.0140,0.9134
3.0145,1.829
3.0150,-0.002135
3.0155,-0.002135
3.0160,0.9134
3.0165,1.219
3.0170,-0.002135
3.0175,-0.9177
3.0180,-0.002135
3.0185,0.6083
3.0190,-0.002135
3.0195,-0.002135
3.0200,-0.002135
3.0205,0.3031
3.0210,-0.3073
3.0215,-0.9177
3.0220,-0.3073
3.0225,-0.002135
3.0230,0.3031
3.0235,0.3031
3.0240,-0.002135
3.0245,-0.3073
3.0250,-0.9177
3.0255,-0.002135
3.0260,1.524
3.0265,1.829
3.0270,1.219
3.0275,0.9134
3.0280,1.829
3.0285,2.134
3.0290,0.9134
3.0295,0.3031
3.0300,0.9134
3.0305,1.829
3.0310,0.9134
3.0315,-0.002135
3.0320,-0.002135
3.0325,0.9134
3.0330,1.524
3.0335,0.9134
3.0340,-0.002135
3.0345,-0.002135
3.0350,-0.002135
3.0355,0.3031
3.0360,-0.002135
3.0365,0.3031
3.0370,0.9134
3.0375,0.9134
3.0380,-0.002135
3.0385,-0.6125
3.0390,-0.3073
3.0395,0.3031
3.0400,0.3031
3.0405,-0.3073
3.0410,-0.6125
3.0415,-0.3073
3.0420,-0.002135
3.0425,0.3031
3.0430,0.3031
3.0435,-0.3073
3.0440,-1.833
3.0445,-2.444
3.0450,-1.223
3.0455,0.6083
3.0460,1.219
3.0465,-0.002135
3.0470,-0.6125
3.0475,-0.002135
3.0480,1.219
3.0485,1.829
3.0490,1.829
3.0495,1.219
3.0500,0.6083
3.0505,0.3031
3.0510,-0.002135
3.0515,0.6083
3.0520,0.9134
3.0525,0.6083
3.0530,0.3031
3.0535,-0.002135
3.0540,-0.002135
3.0545,-0.002135
3.0550,0.3031
3.0555,0.6083
3.0560,0.3031
3.0565,-0.002135
3.0570,0.3031
3.0575,0.6083
3.0580,0.3031
3.0585,-0.6125
3.0590,-1.223
3.0595,-0.3073
3.0600,-0.002135
3.0605,-0.002135
3.0610,0.3031
3.0615,1.524
3.0620,2.439
3.0625,1.524
3.0630,-0.002135
3.0635,-0.6125
3.0640,0.3031
3.0645,1.219
3.0650,0.6083
3.0655,-0.002135
3.0660,0.6083
3.0665,1.524
3.0670,1.524
3.0675,0.6083
3.0680,-0.002135
3.0685,-0.002135
3.0690,0.6083
3.0695,0.6083
3.0700,0.6083
3.0705,0.3031
3.0710,-0.002135
3.0715,-0.3073
3.0720,-0.3073
3.0725,-0.002135
3.0730,0.3031
3.0735,-0.002135
3.0740,-0.9177
3.0745,-1.833
3.0750,-1.528
3.0755,-0.3073
3.0760,0.3031
3.0765,-0.002135
3.0770,-0.3073
3.0775,-0.9177
3.0780,-0.6125
3.0785,-0.6125
3.0790,-0.9177
3.0795,-0.6125
3.0800,0.3031
3.0805,0.9134
3.0810,-0.002135
3.0815,-1.223
3.0820,-0.6125
3.0825,0.9134
3.0830,1.524
3.0835,0.3031
3.0840,-0.3073
3.0845,-0.6125
3.0850,-0.3073
3.0855,-0.3073
3.0860,-0.002135
3.0865,0.6083
3.0870,1.524
3.0875,1.219
3.0880,-0.002135
3.0885,-0.9177
3.0890,-1.223
3.0895,-1.223
3.0900,-1.833
3.0905,-2.444
3.0910,-2.444
3.0915,-1.833
3.0920,-1.528
3.0925,-1.223
3.0930,-0.9177
3.0935,-0.3073
3.0940,-0.002135
3.0945,-0.002135
3.0950,0.3031
3.0955,-0.002135
3.0960,-0.6125
3.0965,-1.223
3.0970,-0.9177
3.0975,-0.002135
3.0980,-0.002135
3.0985,-0.9177
3.0990,-1.833
3.0995,-1.528
3.1000,-0.9177
3.1005,-0.9177
3.1010,-1.223
3.1015,-0.6125
3.1020,-0.002135
3.1025,-0.002135
3.1030,-1.528
3.1035,-2.749
3.1040,-3.054
3.1045,-3.359
3.1050,-3.359
3.1055,-1.833
3.1060,0.6083
3.1065,3.05
3.1070,3.05
3.1075,0.6083
3.1080,-0.9177
3.1085,-0.6125
3.1090,0.6083
3.1095,0.6083
3.1100,-0.6125
3.1105,-1.528
3.1110,-0.9177
3.1115,-0.002135
3.1120,-0.002135
3.1125,-0.6125
3.1130,-0.6125
3.1135,-0.002135
3.1140,-0.002135
3.1145,-0.3073
3.1150,-0.6125
3.1155,-0.3073
3.1160,-0.3073
3.1165,-0.3073
3.1170,-0.002135
3.1175,0.6083
3.1180,-0.002135
3.1185,-0.9177
3.1190,-1.528
3.1195,-0.6125
3.1200,-0.002135
3.1205,-0.002135
3.1210,-0.002135
3.1215,-0.002135
3.1220,-0.002135
3.1225,-0.002135
3.1230,-0.6125
3.1235,-0.6125
3.1240,-0.002135
3.1245,-0.002135
3.1250,-0.002135
3.1255,0.3031
3.1260,1.524
3.1265,2.439
3.1270,2.439
3.1275,1.219
3.1280,0.3031
3.1285,0.3031
3.1290,0.6083
3.1295,0.3031
3.1300,-0.6125
3.1305,-0.9177
3.1310,-0.002135
3.1315,0.3031
3.1320,-0.002135
3.1325,-0.6125
3.1330,-0.002135
3.1335,-0.002135
3.1340,-0.3073
3.1345,-1.223
3.1350,-1.223
3.1355,-0.3073
3.1360,-0.3073
3.1365,-0.9177
3.1370,-0.9177
3.1375,-0.3073
3.1380,-0.3073
3.1385,-0.6125
3.1390,-0.002135
3.1395,0.6083
3.1400,0.3031
3.1405,-0.6125
3.1410,-0.9177
3.1415,-0.3073
3.1420,-0.002135
3.1425,-0.3073
3.1430,-0.002135
3.1435,1.219
3.1440,2.134
3.1445,1.524
3.1450,0.3031
3.1455,-0.002135
3.1460,0.9134
3.1465,1.219
3.1470,0.9134
3.1475,0.3031
3.1480,-0.002135
3.1485,-0.002135
3.1490,-0.002135
3.1495,-0.002135
3.1500,0.3031
3.1505,1.829
3.1510,2.745
3.1515,1.829
3.1520,-0.002135
3.1525,-1.223
3.1530,-0.9177
3.1535,-0.002135
3.1540,-0.002135
3.1545,-0.3073
3.1550,-0.002135
3.1555,1.219
3.1560,0.6083
3.1565,-1.223
3.1570,-2.444
3.1575,-1.833
3.1580,-0.9177
3.1585,-0.3073
3.1590,-0.002135
3.1595,-0.002135
3.1600,-0.002135
3.1605,-0.002135
3.1610,-0.6125
3.1615,-0.9177
3.1620,-0.6125
3.1625,-0.002135
3.1630,0.6083
3.1635,0.9134
3.1640,1.829
3.1645,3.05
3.1650,3.05
3.1655,0.9134
3.1660,-0.9177
3.1665,-0.6125
3.1670,0.6083
3.1675,0.9134
3.1680,-0.002135
3.1685,-0.3073
3.1690,0.6083
3.1695,1.219
3.1700,0.6083
3.1705,0.3031
3.1710,0.3031
3.1715,0.6083
3.1720,0.6083
3.1725,0.6083
3.1730,1.219
3.1735,1.829
3.1740,0.9134
3.1745,-0.002135
3.1750,-0.002135
3.1755,-0.3073
3.1760,-1.223
3.1765,-2.138
3.1770,-1.833
3.1775,-0.3073
3.1780,0.6083
3.1785,0.9134
3.1790,-0.002135
3.1795,-0.9177
3.1800,-1.528
3.1805,-0.9177
3.1810,-0.002135
3.1815,0.3031
3.1820,-0.002135
3.1825,-0.3073
3.1830,-0.002135
3.1835,-0.002135
3.1840,-0.002135
3.1845,-0.002135
3.1850,0.9134
3.1855,1.219
3.1860,0.6083
3.1865,-0.6125
3.1870,-1.528
3.1875,-1.528
3.1880,-0.3073
3.1885,0.6083
3.1890,0.9134
3.1895,-0.002135
3.1900,-1.528
3.1905,-2.138
3.1910,-1.528
3.1915,-0.9177
3.1920,-0.9177
3.1925,-0.9177
3.1930,-0.3073
3.1935,-0.002135
3.1940,-0.002135
3.1945,-0.3073
3.1950,-0.9177
3.1955,-1.223
3.1960,-0.6125
3.1965,0.3031
3.1970,1.524
3.1975,1.524
3.1980,0.3031
3.1985,-0.002135
3.1990,-0.002135
3.1995,0.3031
3.2000,0.3031
3.2005,0.6083
3.2010,0.9134
3.2015,0.6083
3.2020,-0.002135
3.2025,-0.3073
3.2030,0.3031
3.2035,0.9134
3.2040,0.3031
3.2045,-0.6125
3.2050,-0.9177
3.2055,-0.002135
3.2060,0.3031
3.2065,-0.002135
3.2070,-0.002135
3.2075,0.3031
3.2080,0.3031
3.2085,-0.002135
3.2090,-0.002135
3.2095,0.6083
3.2100,1.219
3.2105,0.3031
3.2110,-0.002135
3.2115,0.3031
3.2120,1.219
3.2125,0.9134
3.2130,-0.002135
3.2135,-0.002135
3.2140,-0.002135
3.2145,-0.002135
3.2150,0.6083
3.2155,1.219
3.2160,0.6083
3.2165,-0.6125
3.2170,-0.6125
3.2175,0.6083
3.2180,2.134
3.2185,2.134
3.2190,-0.002135
3.2195,-1.223
3.2200,-1.223
3.2205,-0.3073
3.2210,0.6083
3.2215,1.219
3.2220,0.6083
3.2225,-0.6125
3.2230,-0.9177
3.2235,-0.002135
3.2240,0.6083
3.2245,-0.002135
3.2250,-1.223
3.2255,-0.6125
3.2260,0.6083
3.2265,-0.002135
3.2270,-1.528
3.2275,-1.833
3.2280,-0.3073
3.2285,0.6083
3.2290,-0.3073
3.2295,-2.138
3.2300,-2.138
3.2305,-0.002135
3.2310,1.219
3.2315,1.219
3.2320,0.3031
3.2325,-0.002135
3.2330,-0.002135
3.2335,0.6083
3.2340,0.6083
3.2345,-0.002135
3.2350,0.3031
3.2355,1.829
3.2360,2.745
3.2365,1.524
3.2370,-0.002135
3.2375,-0.002135
3.2380,2.134
3.2385,3.05
3.2390,0.6083
3.2395,-1.833
3.2400,-2.138
3.2405,-0.6125
3.2410,-0.002135
3.2415,-0.6125
3.2420,-0.3073
3.2425,0.3031
3.2430,0.6083
3.2435,0.3031
3.2440,-0.002135
3.2445,0.3031
3.2450,0.9134
3.2455,0.9134
3.2460,0.6083
3.2465,0.6083
3.2470,1.219
3.2475,0.9134
3.2480,-0.002135
3.2485,-1.528
3.2490,-1.528
3.2495,-0.6125
3.2500,-0.002135
3.2505,-0.6125
3.2510,-0.9177
3.2515,-0.002135
3.2520,1.524
3.2525,1.219
3.2530,-0.3073
3.2535,-1.223
3.2540,-1.223
3.2545,-1.223
3.2550,-1.528
3.2555,-1.833
3.2560,-0.9177
3.2565,-0.002135
3.2570,-0.002135
3.2575,-0.002135
3.2580,0.6083
3.2585,-0.002135
3.2590,-1.528
3.2595,-3.054
3.2600,-2.749
3.2605,-1.528
3.2610,-1.223
3.2615,-1.223
3.2620,-0.002135
3.2625,1.219
3.2630,1.524
3.2635,-0.002135
3.2640,-0.9177
3.2645,-1.223
3.2650,-0.6125
3.2655,-0.6125
3.2660,-0.002135
3.2665,0.6083
3.2670,0.9134
3.2675,-0.002135
3.2680,-1.223
3.2685,-1.833
3.2690,-1.223
3.2695,0.3031
3.2700,1.219
3.2705,0.9134
3.2710,-0.002135
3.2715,-0.6125
3.2720,-0.3073
3.2725,-0.3073
3.2730,-0.6125
3.2735,-0.9177
3.2740,-0.6125
3.2745,-0.002135
3.2750,0.3031
3.2755,0.3031
3.2760,0.6083
3.2765,0.3031
3.2770,-0.6125
3.2775,-1.223
3.2780,-0.6125
3.2785,0.9134
3.2790,2.134
3.2795,1.829
3.2800,0.6083
3.2805,0.3031
3.2810,0.9134
3.2815,1.829
3.2820,1.524
3.2825,-0.002135
3.2830,-0.6125
3.2835,0.3031
3.2840,2.134
3.2845,2.134
3.2850,0.3031
3.2855,-0.3073
3.2860,0.6083
3.2865,1.524
3.2870,0.3031
3.2875,-0.6125
3.2880,-0.002135
3.2885,1.524
3.2890,2.134
3.2895,0.9134
3.2900,0.3031
3.2905,-0.002135
3.2910,0.3031
3.2915,0.3031
3.2920,0.3031
3.2925,-0.002135
3.2930,-1.528
3.2935,-2.749
3.2940,-1.833
3.2945,-0.002135
3.2950,0.3031
3.2955,-0.6125
3.2960,-1.528
3.2965,-1.223
3.2970,-0.3073
3.2975,-0.6125
3.2980,-0.9177
3.2985,-0.9177
3.2990,-0.3073
3.2995,-0.002135
3.3000,-0.3073
3.3005,-0.002135
3.3010,0.6083
3.3015,1.219
3.3020,0.9134
3.3025,-0.002135
3.3030,-0.9177
3.3035,-0.6125
3.3040,-0.6125
3.3045,-0.9177
3.3050,-0.9177
3.3055,-0.3073
3.3060,0.9134
3.3065,1.829
3.3070,1.219
3.3075,0.6083
3.3080,0.3031
3.3085,0.3031
3.3090,0.3031
3.3095,-0.002135
3.3100,-0.002135
3.3105,-0.6125
3.3110,-0.6125
3.3115,-0.6125
3.3120,-0.3073
3.3125,-0.002135
3.3130,-0.6125
3.3135,-1.223
3.3140,-1.223
3.3145,-0.9177
3.3150,-0.6125
3.3155,-0.6125
3.3160,-0.6125
3.3165,-0.002135
3.3170,0.3031
3.3175,-0.002135
3.3180,-0.6125
3.3185,-0.6125
3.3190,-0.002135
3.3195,-0.002135
3.3200,-0.002135
3.3205,-0.002135
3.3210,0.6083
3.3215,0.3031
3.3220,-0.9177
3.3225,-1.833
3.3230,-0.9177
3.3235,-0.002135
3.3240,-0.002135
3.3245,-0.002135
3.3250,0.3031
3.3255,1.219
3.3260,1.219
3.3265,0.9134
3.3270,1.219
3.3275,1.219
3.3280,-0.002135
3.3285,-1.223
3.3290,-0.3073
3.3295,0.9134
3.3300,0.9134
3.3305,-0.002135
3.3310,-0.3073
3.3315,0.6083
3.3320,1.524
3.3325,0.6083
3.3330,-0.6125
3.3335,-0.9177
3.3340,-0.6125
3.3345,-0.6125
3.3350,-1.223
3.3355,-1.223
3.3360,-0.3073
3.3365,-0.002135
3.3370,-0.002135
3.3375,-0.9177
3.3380,-0.9177
3.3385,-0.002135
3.3390,0.9134
3.3395,0.3031
3.3400,-0.3073
3.3405,-0.3073
3.3410,0.3031
3.3415,0.6083
3.3420,-0.3073
3.3425,-1.833
3.3430,-2.749
3.3435,-3.359
3.3440,-3.359
3.3445,-2.444
3.3450,-0.6125
3.3455,0.6083
3.3460,0.6083
3.3465,0.6083
3.3470,0.3031
3.3475,-0.6125
3.3480,-1.833
3.3485,-0.9177
3.3490,0.9134
3.3495,1.524
3.3500,-0.002135
3.3505,-0.9177
3.3510,-0.002135
3.3515,0.9134
3.3520,0.6083
3.3525,-0.002135
3.3530,-0.002135
3.3535,0.6083
3.3540,0.3031
3.3545,0.3031
3.3550,0.6083
3.3555,0.9134
3.3560,-0.002135
3.3565,-0.3073
3.3570,0.3031
3.3575,1.524
3.3580,1.524
3.3585,0.6083
3.3590,0.6083
3.3595,1.219
3.3600,0.9134
3.3605,0.3031
3.3610,-0.002135
3.3615,0.3031
3.3620,-0.002135
3.3625,-0.6125
3.3630,-0.3073
3.3635,0.6083
3.3640,0.3031
3.3645,-0.3073
3.3650,-0.002135
3.3655,0.6083
3.3660,0.3031
3.3665,-0.6125
3.3670,-0.9177
3.3675,-0.002135
3.3680,0.6083
3.3685,-0.002135
3.3690,-0.6125
3.3695,-0.002135
3.3700,0.3031
3.3705,-0.002135
3.3710,-0.6125
3.3715,0.6083
3.3720,2.439
3.3725,3.355
3.3730,3.355
3.3735,3.965
3.3740,3.66
3.3745,2.134
3.3750,0.6083
3.3755,0.9134
3.3760,2.134
3.3765,2.134
3.3770,0.9134
3.3775,-0.002135
3.3780,-0.002135
3.3785,0.6083
3.3790,0.9134
3.3795,0.6083
3.3800,-0.002135
3.3805,-0.002135
3.3810,-0.002135
3.3815,0.3031
3.3820,1.219
3.3825,2.134
3.3830,2.134
3.3835,1.524
3.3840,-0.002135
3.3845,-0.3073
3.3850,-0.002135
3.3855,0.9134
3.3860,0.9134
3.3865,-0.002135
3.3870,-0.002135
3.3875,-0.002135
3.3880,-0.002135
3.3885,-0.002135
3.3890,-0.002135
3.3895,0.9134
3.3900,0.6083
3.3905,-0.6125
3.3910,-0.9177
3.3915,-0.002135
3.3920,0.9134
3.3925,-0.002135
3.3930,-0.9177
3.3935,-0.6125
3.3940,-0.002135
3.3945,-0.6125
3.3950,-0.9177
3.3955,-0.002135
3.3960,0.3031
3.3965,-0.3073
3.3970,-1.528
3.3975,-1.528
3.3980,-0.002135
3.3985,0.6083
3.3990,0.9134
3.3995,0.6083
3.4000,-0.3073
3.4005,-1.833
3.4010,-1.833
3.4015,-0.002135
3.4020,1.524
3.4025,-0.002135
3.4030,-2.138
3.4035,-2.138
3.4040,-0.6125
3.4045,-0.002135
3.4050,-0.6125
3.4055,-0.9177
3.4060,-0.6125
3.4065,-0.9177
3.4070,-1.223
3.4075,-1.223
3.4080,-0.3073
3.4085,-0.002135
3.4090,-0.002135
3.4095,-0.6125
3.4100,-0.9177
3.4105,-0.6125
3.4110,0.3031
3.4115,0.9134
3.4120,0.3031
3.4125,-0.6125
3.4130,-1.223
3.4135,-0.9177
3.4140,-0.9177
3.4145,-1.528
3.4150,-1.528
3.4155,-0.6125
3.4160,-0.3073
3.4165,-0.6125
3.4170,-0.6125
3.4175,-0.002135
3.4180,-0.002135
3.4185,-1.223
3.4190,-2.444
3.4195,-1.833
3.4200,-1.223
3.4205,-1.528
3.4210,-2.138
3.4215,-1.528
3.4220,-0.6125
3.4225,-0.3073
3.4230,-0.3073
3.4235,-0.002135
3.4240,0.3031
3.4245,0.3031
3.4250,-0.002135
3.4255,0.6083
3.4260,1.524
3.4265,1.219
3.4270,-0.002135
3.4275,-0.9177
3.4280,-0.9177
3.4285,-0.002135
3.4290,1.219
3.4295,1.524
3.4300,0.9134
3.4305,-0.002135
3.4310,-0.6125
3.4315,-0.3073
3.4320,-0.002135
3.4325,-0.002135
3.4330,-0.002135
3.4335,-0.002135
3.4340,-0.002135
3.4345,-0.002135
3.4350,-0.3073
3.4355,-0.9177
3.4360,-1.223
3.4365,-1.223
3.4370,-0.002135
3.4375,0.6083
3.4380,0.3031
3.4385,-0.002135
3.4390,0.6083
3.4395,1.829
3.4400,1.524
3.4405,-0.3073
3.4410,-1.223
3.4415,-0.9177
3.4420,-0.3073
3.4425,-0.6125
3.4430,-0.3073
3.4435,0.6083
3.4440,1.524
3.4445,0.9134
3.4450,-0.002135
3.4455,-0.002135
3.4460,0.6083
3.4465,0.6083
3.4470,-0.002135
3.4475,-0.6125
3.4480,-0.9177
3.4485,-1.223
3.4490,-0.6125
3.4495,0.3031
3.4500,1.219
3.4505,1.219
3.4510,-0.002135
3.4515,-1.223
3.4520,-1.223
3.4525,-0.9177
3.4530,-0.9177
3.4535,-0.9177
3.4540,-0.9177
3.4545,-0.6125
3.4550,-0.002135
3.4555,-0.002135
3.4560,-0.002135
3.4565,-0.3073
3.4570,-0.002135
3.4575,0.6083
3.4580,0.9134
3.4585,-0.002135
3.4590,-1.223
3.4595,-1.528
3.4600,-0.3073
3.4605,1.524
3.4610,2.745
3.4615,1.829
3.4620,-0.002135
3.4625,-0.6125
3.4630,0.3031
3.4635,1.524
3.4640,1.524
3.4645,0.3031
3.4650,-0.3073
3.4655,-0.3073
3.4660,-0.6125
3.4665,-1.223
3.4670,-1.528
3.4675,-0.9177
3.4680,-0.002135
3.4685,-0.002135
3.4690,-0.3073
3.4695,-0.002135
3.4700,1.219
3.4705,1.829
3.4710,0.6083
3.4715,-1.223
3.4720,-1.223
3.4725,-0.002135
3.4730,0.6083
3.4735,-0.3073
3.4740,-1.528
3.4745,-0.6125
3.4750,0.9134
3.4755,1.524
3.4760,0.6083
3.4765,-0.3073
3.4770,-0.6125
3.4775,-0.002135
3.4780,0.3031
3.4785,0.6083
3.4790,0.9134
3.4795,0.9134
3.4800,1.219
3.4805,1.219
3.4810,0.6083
3.4815,-0.002135
3.4820,-0.002135
3.4825,-0.002135
3.4830,-0.002135
3.4835,-0.6125
3.4840,-0.6125
3.4845,-0.002135
3.4850,0.6083
3.4855,0.3031
3.4860,-0.002135
3.4865,0.6083
3.4870,1.219
3.4875,1.219
3.4880,0.6083
3.4885,0.3031
3.4890,0.3031
3.4895,0.3031
3.4900,0.3031
3.4905,-0.002135
3.4910,-0.002135
3.4915,-0.002135
3.4920,-0.3073
3.4925,-0.6125
3.4930,-0.9177
3.4935,-0.6125
3.4940,-0.002135
3.4945,0.9134
3.4950,0.9134
3.4955,0.3031
3.4960,-0.002135
3.4965,-0.3073
3.4970,-0.3073
3.4975,-0.002135
3.4980,-0.002135
3.4985,-0.3073
3.4990,-1.223
3.4995,-0.9177
3.5000,-0.002135
3.5005,-0.002135
3.5010,-0.3073
3.5015,-0.9177
3.5020,-0.3073
3.5025,-0.002135
3.5030,-0.6125
3.5035,-1.528
3.5040,-1.223
3.5045,-0.002135
3.5050,0.9134
3.5055,0.3031
3.5060,-0.6125
3.5065,-1.528
3.5070,-1.528
3.5075,-0.6125
3.5080,0.3031
3.5085,0.9134
3.5090,0.6083
3.5095,0.3031
3.5100,0.3031
3.5105,1.524
3.5110,2.134
3.5115,2.134
3.5120,2.745
3.5125,3.66
3.5130,3.66
3.5135,1.829
3.5140,-0.3073
3.5145,-0.9177
3.5150,-0.6125
3.5155,-0.002135
3.5160,-0.3073
3.5165,-0.6125
3.5170,-0.002135
3.5175,-0.002135
3.5180,-0.002135
3.5185,-0.002135
3.5190,-0.002135
3.5195,-0.002135
3.5200,-0.002135
3.5205,-0.002135
3.5210,0.9134
3.5215,1.829
3.5220,1.524
3.5225,0.6083
3.5230,-0.002135
3.5235,0.9134
3.5240,1.524
3.5245,1.524
3.5250,0.6083
3.5255,-0.002135
3.5260,-0.002135
3.5265,-0.002135
3.5270,-0.002135
3.5275,-0.3073
3.5280,-0.3073
3.5285,-0.002135
3.5290,-0.002135
3.5295,-0.002135
3.5300,-0.002135
3.5305,-0.002135
3.5310,-0.002135
3.5315,-0.3073
3.5320,-0.002135
3.5325,0.9134
3.5330,1.219
3.5335,0.3031
3.5340,-0.9177
3.5345,-1.223
3.5350,-0.3073
3.5355,0.3031
3.5360,0.3031
3.5365,0.3031
3.5370,1.219
3.5375,1.524
3.5380,1.219
3.5385,0.3031
3.5390,-0.002135
3.5395,-0.002135
3.5400,-0.002135
3.5405,-0.002135
3.5410,-0.002135
3.5415,-0.002135
3.5420,-0.002135
3.5425,-0.002135
3.5430,-0.002135
3.5435,-0.002135
3.5440,-0.3073
3.5445,-1.223
3.5450,-0.9177
3.5455,-0.002135
3.5460,-0.002135
3.5465,-0.6125
3.5470,-1.833
3.5475,-1.528
3.5480,-0.002135
3.5485,0.3031
3.5490,-0.002135
3.5495,-0.6125
3.5500,-0.6125
3.5505,-0.3073
3.5510,-0.9177
3.5515,-1.223
3.5520,-1.223
3.5525,-1.223
3.5530,-1.223
3.5535,-0.6125
3.5540,-0.002135
3.5545,-0.3073
3.5550,-2.138
3.5555,-3.359
3.5560,-1.833
3.5565,-0.002135
3.5570,-0.002135
3.5575,-0.9177
3.5580,-0.9177
3.5585,-0.002135
3.5590,-0.002135
3.5595,-0.9177
3.5600,-0.9177
3.5605,0.6083
3.5610,2.134
3.5615,1.524
3.5620,-0.002135
3.5625,-0.3073
3.5630,-0.002135
3.5635,0.3031
3.5640,-0.002135
3.5645,-0.002135
3.5650,-0.002135
3.5655,-0.002135
3.5660,-0.3073
3.5665,-0.6125
3.5670,-0.3073
3.5675,-0.002135
3.5680,0.3031
3.5685,0.9134
3.5690,0.6083
3.5695,-0.6125
3.5700,-1.223
3.5705,-0.6125
3.5710,0.9134
3.5715,1.219
3.5720,-0.002135
3.5725,-0.002135
3.5730,0.3031
3.5735,0.6083
3.5740,-0.002135
3.5745,-0.3073
3.5750,0.6083
3.5755,1.829
3.5760,0.9134
3.5765,-0.6125
3.5770,-1.528
3.5775,-0.9177
3.5780,-0.3073
3.5785,-0.9177
3.5790,-1.528
3.5795,-0.9177
3.5800,-0.002135
3.5805,0.3031
3.5810,-0.002135
3.5815,-0.3073
3.5820,-0.9177
3.5825,-0.6125
3.5830,0.3031
3.5835,1.524
3.5840,1.829
3.5845,1.219
3.5850,0.6083
3.5855,-0.002135
3.5860,-0.9177
3.5865,-1.223
3.5870,-0.3073
3.5875,0.3031
3.5880,-0.002135
3.5885,-1.223
3.5890,-2.444
3.5895,-1.833
3.5900,-0.3073
3.5905,0.6083
3.5910,0.3031
3.5915,-0.002135
3.5920,-0.9177
3.5925,-1.223
3.5930,-0.6125
3.5935,-0.002135
3.5940,0.3031
3.5945,-0.002135
3.5950,-0.6125
3.5955,-1.223
3.5960,-0.6125
3.5965,0.9134
3.5970,2.439
3.5975,2.134
3.5980,1.219
3.5985,0.6083
3.5990,0.6083
3.5995,-0.002135
3.6000,-0.9177
3.6005,-0.6125
3.6010,0.6083
3.6015,1.219
3.6020,0.3031
3.6025,-0.002135
3.6030,0.9134
3.6035,2.439
3.6040,2.439
3.6045,1.219
3.6050,-0.002135
3.6055,-0.002135
3.6060,-0.002135
3.6065,-0.002135
3.6070,0.3031
3.6075,0.9134
3.6080,0.9134
3.6085,0.3031
3.6090,-0.3073
3.6095,-0.6125
3.6100,-0.3073
3.6105,-0.002135
3.6110,-0.002135
3.6115,-0.002135
3.6120,-0.3073
3.6125,-0.9177
3.6130,-1.833
3.6135,-2.138
3.6140,-1.223
3.6145,-0.002135
3.6150,-0.3073
3.6155,-0.9177
3.6160,-0.6125
3.6165,0.6083
3.6170,1.524
3.6175,0.3031
3.6180,-0.3073
3.6185,-0.002135
3.6190,0.6083
3.6195,0.6083
3.6200,0.9134
3.6205,2.134
3.6210,2.134
3.6215,0.6083
3.6220,-0.6125
3.6225,-0.6125
3.6230,0.3031
3.6235,0.9134
3.6240,-0.002135
3.6245,-0.3073
3.6250,-0.3073
3.6255,-0.002135
3.6260,-0.002135
3.6265,0.3031
3.6270,-0.002135
3.6275,-0.6125
3.6280,-1.223
3.6285,-0.6125
3.6290,-0.002135
3.6295,-0.002135
3.6300,-0.002135
3.6305,-0.002135
3.6310,0.3031
3.6315,0.3031
3.6320,-0.3073
3.6325,-0.9177
3.6330,-0.6125
3.6335,-0.002135
3.6340,1.219
3.6345,1.524
3.6350,1.219
3.6355,0.3031
3.6360,0.3031
3.6365,0.3031
3.6370,-0.002135
3.6375,-1.223
3.6380,-1.833
3.6385,-1.223
3.6390,-0.002135
3.6395,0.6083
3.6400,-0.002135
3.6405,-0.3073
3.6410,-0.6125
3.6415,-0.9177
3.6420,-1.223
3.6425,-0.9177
3.6430,-0.3073
3.6435,-0.002135
3.6440,-0.002135
3.6445,-0.002135
3.6450,0.3031
3.6455,0.3031
3.6460,-0.002135
3.6465,-0.6125
3.6470,-0.3073
3.6475,0.3031
3.6480,0.6083
3.6485,0.3031
3.6490,-0.002135
3.6495,-0.3073
3.6500,-0.6125
3.6505,-1.223
3.6510,-0.9177
3.6515,-0.002135
3.6520,0.6083
3.6525,0.6083
3.6530,-0.002135
3.6535,-0.002135
3.6540,0.9134
3.6545,1.829
3.6550,1.219
3.6555,-0.002135
3.6560,-0.3073
3.6565,-0.002135
3.6570,0.3031
3.6575,1.219
3.6580,1.219
3.6585,0.3031
3.6590,-0.9177
3.6595,-1.833
3.6600,-0.6125
3.6605,0.9134
3.6610,0.9134
3.6615,-0.3073
3.6620,-1.223
3.6625,-0.6125
3.6630,0.9134
3.6635,1.219
3.6640,-0.002135
3.6645,-1.528
3.6650,-1.528
3.6655,-0.002135
3.6660,0.9134
3.6665,0.6083
3.6670,-0.002135
3.6675,-0.9177
3.6680,-0.9177
3.6685,-0.6125
3.6690,-0.6125
3.6695,-0.6125
3.6700,-0.3073
3.6705,-0.6125
3.6710,-1.528
3.6715,-1.833
3.6720,-0.9177
3.6725,0.6083
3.6730,0.9134
3.6735,-0.002135
3.6740,-0.002135
3.6745,0.6083
3.6750,1.829
3.6755,1.829
3.6760,0.6083
3.6765,-0.002135
3.6770,-0.002135
3.6775,0.3031
3.6780,0.3031
3.6785,-0.002135
3.6790,-0.002135
3.6795,0.6083
3.6800,1.219
3.6805,1.219
3.6810,0.9134
3.6815,0.9134
3.6820,1.219
3.6825,1.829
3.6830,2.134
3.6835,1.829
3.6840,1.219
3.6845,0.6083
3.6850,0.3031
3.6855,0.6083
3.6860,0.6083
3.6865,0.6083
3.6870,0.3031
3.6875,-0.3073
3.6880,-1.528
3.6885,-2.444
3.6890,-2.749
3.6895,-2.749
3.6900,-2.444
3.6905,-1.223
3.6910,0.3031
3.6915,1.524
3.6920,0.6083
3.6925,-0.3073
3.6930,-0.002135
3.6935,1.219
3.6940,1.829
3.6945,0.6083
3.6950,-0.3073
3.6955,-0.3073
3.6960,0.6083
3.6965,1.219
3.6970,0.6083
3.6975,-0.002135
3.6980,-1.223
3.6985,-1.223
3.6990,-0.3073
3.6995,0.6083
3.7000,-0.002135
3.7005,-1.833
3.7010,-2.749
3.7015,-1.833
3.7020,-0.3073
3.7025,-0.002135
3.7030,-0.002135
3.7035,0.9134
3.7040,0.9134
3.7045,-1.223
3.7050,-3.359
3.7055,-2.749
3.7060,-0.002135
3.7065,0.3031
3.7070,-1.223
3.7075,-2.444
3.7080,-0.9177
3.7085,0.3031
3.7090,-0.002135
3.7095,-0.9177
3.7100,-0.9177
3.7105,-0.6125
3.7110,-0.9177
3.7115,-1.528
3.7120,-1.223
3.7125,-0.6125
3.7130,-0.9177
3.7135,-1.528
3.7140,-1.223
3.7145,-0.6125
3.7150,-0.6125
3.7155,-1.223
3.7160,-0.6125
3.7165,0.9134
3.7170,1.829
3.7175,0.9134
3.7180,0.3031
3.7185,0.9134
3.7190,1.219
3.7195,0.9134
3.7200,0.3031
3.7205,0.6083
3.7210,0.9134
3.7215,-0.002135
3.7220,-0.3073
3.7225,-0.002135
3.7230,-0.002135
3.7235,-0.3073
3.7240,-1.223
3.7245,-0.9177
3.7250,0.9134
3.7255,1.829
3.7260,1.219
3.7265,0.6083
3.7270,1.219
3.7275,1.829
3.7280,1.524
3.7285,0.6083
3.7290,0.9134
3.7295,1.524
3.7300,0.9134
3.7305,-0.002135
3.7310,-0.002135
3.7315,0.3031
3.7320,-0.002135
3.7325,-0.3073
3.7330,-0.3073
3.7335,-0.002135
3.7340,0.9134
3.7345,0.9134
3.7350,0.9134
3.7355,0.6083
3.7360,-0.002135
3.7365,-0.9177
3.7370,-0.6125
3.7375,0.3031
3.7380,1.219
3.7385,0.9134
3.7390,-0.002135
3.7395,0.3031
3.7400,0.9134
3.7405,0.6083
3.7410,-0.002135
3.7415,0.3031
3.7420,1.524
3.7425,1.829
3.7430,0.3031
3.7435,-1.223
3.7440,-1.528
3.7445,-0.6125
3.7450,-0.002135
3.7455,-0.002135
3.7460,-0.002135
3.7465,0.6083
3.7470,0.9134
3.7475,0.9134
3.7480,0.6083
3.7485,0.3031
3.7490,-0.002135
3.7495,-0.002135
3.7500,-0.3073
3.7505,-0.6125
3.7510,-1.223
3.7515,-1.223
3.7520,-0.3073
3.7525,1.219
3.7530,2.134
3.7535,2.134
3.7540,1.524
3.7545,0.9134
3.7550,0.3031
3.7555,-0.002135
3.7560,0.3031
3.7565,0.3031
3.7570,-0.002135
3.7575,-0.3073
3.7580,-0.002135
3.7585,0.6083
3.7590,0.9134
3.7595,0.6083
3.7600,0.3031
3.7605,0.3031
3.7610,-0.002135
3.7615,-0.9177
3.7620,-1.528
3.7625,-0.9177
3.7630,-0.002135
3.7635,-0.002135
3.7640,-0.002135
3.7645,-0.3073
3.7650,-0.6125
3.7655,-0.6125
3.7660,-0.3073
3.7665,-0.3073
3.7670,-0.6125
3.7675,-1.223
3.7680,-0.6125
3.7685,-0.002135
3.7690,-0.002135
3.7695,-1.223
3.7700,-1.833
3.7705,-0.9177
3.7710,-0.002135
3.7715,0.3031
3.7720,0.3031
3.7725,0.9134
3.7730,1.524
3.7735,0.3031
3.7740,-1.223
3.7745,-1.833
3.7750,-0.6125
3.7755,-0.002135
3.7760,0.3031
3.7765,0.6083
3.7770,1.219
3.7775,1.219
3.7780,0.3031
3.7785,0.3031
3.7790,1.219
3.7795,1.524
3.7800,0.3031
3.7805,-0.3073
3.7810,0.6083
3.7815,1.829
3.7820,0.9134
3.7825,-0.6125
3.7830,-0.9177
3.7835,0.6083
3.7840,1.524
3.7845,0.3031
3.7850,-0.3073
3.7855,-0.002135
3.7860,0.9134
3.7865,0.3031
3.7870,-1.223
3.7875,-2.444
3.7880,-2.749
3.7885,-2.749
3.7890,-2.749
3.7895,-2.138
3.7900,-1.528
3.7905,-2.138
3.7910,-2.749
3.7915,-2.138
3.7920,-0.9177
3.7925,-0.6125
3.7930,-0.9177
3.7935,-0.6125
3.7940,0.6083
3.7945,1.524
3.7950,1.219
3.7955,-0.002135
3.7960,-0.9177
3.7965,-0.9177
3.7970,-0.6125
3.7975,-0.002135
3.7980,0.3031
3.7985,0.6083
3.7990,0.9134
3.7995,0.9134
3.8000,0.9134
3.8005,0.9134
3.8010,-0.002135
3.8015,-0.9177
3.8020,-2.444
3.8025,-2.749
3.8030,-1.528
3.8035,-0.3073
3.8040,-0.002135
3.8045,-0.002135
3.8050,-0.002135
3.8055,-0.002135
3.8060,-0.002135
3.8065,-0.002135
3.8070,-0.002135
3.8075,0.6083
3.8080,0.6083
3.8085,0.3031
3.8090,-0.002135
3.8095,-0.002135
3.8100,-0.002135
3.8105,-0.002135
3.8110,-0.002135
3.8115,0.3031
3.8120,0.9134
3.8125,0.6083
3.8130,-0.002135
3.8135,-0.9177
3.8140,-0.6125
3.8145,-0.002135
3.8150,0.3031
3.8155,-0.002135
3.8160,-0.002135
3.8165,-0.002135
3.8170,0.3031
3.8175,-0.002135
3.8180,-0.6125
3.8185,-0.3073
3.8190,-0.002135
3.8195,-0.6125
3.8200,-1.223
3.8205,-1.223
3.8210,-0.6125
3.8215,-0.002135
3.8220,-0.002135
3.8225,0.3031
3.8230,0.6083
3.8235,0.6083
3.8240,-0.3073
3.8245,-0.6125
3.8250,-0.3073
3.8255,-0.002135
3.8260,-0.002135
3.8265,-0.6125
3.8270,-1.528
3.8275,-2.138
3.8280,-1.833
3.8285,-0.6125
3.8290,0.3031
3.8295,0.3031
3.8300,0.3031
3.8305,0.3031
3.8310,0.9134
3.8315,1.219
3.8320,0.9134
3.8325,0.6083
3.8330,0.3031
3.8335,0.3031
3.8340,-0.002135
3.8345,-0.3073
3.8350,-0.3073
3.8355,0.3031
3.8360,1.219
3.8365,1.219
3.8370,0.9134
3.8375,0.9134
3.8380,0.9134
3.8385,0.6083
3.8390,0.6083
3.8395,0.6083
3.8400,0.9134
3.8405,0.6083
3.8410,0.6083
3.8415,0.6083
3.8420,0.6083
3.8425,1.219
3.8430,1.219
3.8435,0.3031
3.8440,-1.223
3.8445,-1.528
3.8450,-0.002135
3.8455,1.524
3.8460,0.6083
3.8465,-1.528
3.8470,-2.444
3.8475,-0.9177
3.8480,-0.6125
3.8485,-1.833
3.8490,-1.833
3.8495,-0.002135
3.8500,2.134
3.8505,1.219
3.8510,-0.3073
3.8515,-0.002135
3.8520,1.829
3.8525,2.134
3.8530,0.6083
3.8535,0.3031
3.8540,1.524
3.8545,2.439
3.8550,1.829
3.8555,0.9134
3.8560,0.9134
3.8565,0.9134
3.8570,0.9134
3.8575,0.9134
3.8580,0.9134
3.8585,0.3031
3.8590,-0.002135
3.8595,0.3031
3.8600,0.3031
3.8605,-0.6125
3.8610,-0.9177
3.8615,0.3031
3.8620,1.829
3.8625,1.219
3.8630,-0.3073
3.8635,-0.6125
3.8640,0.6083
3.8645,1.219
3.8650,-0.002135
3.8655,-1.528
3.8660,-1.528
3.8665,-0.6125
3.8670,-0.3073
3.8675,-0.9177
3.8680,-1.528
3.8685,-1.223
3.8690,-0.3073
3.8695,0.3031
3.8700,0.6083
3.8705,0.9134
3.8710,0.9134
3.8715,0.3031
3.8720,-0.3073
3.8725,-0.6125
3.8730,-0.002135
3.8735,0.9134
3.8740,0.6083
3.8745,-0.3073
3.8750,-0.6125
3.8755,-0.002135
3.8760,0.6083
3.8765,-0.002135
3.8770,-0.6125
3.8775,-0.3073
3.8780,0.3031
3.8785,0.9134
3.8790,0.6083
3.8795,0.3031
3.8800,0.6083
3.8805,0.9134
3.8810,0.9134
3.8815,0.9134
3.8820,0.6083
3.8825,-0.002135
3.8830,-0.9177
3.8835,-1.528
3.8840,-1.223
3.8845,-0.3073
3.8850,-0.002135
3.8855,-0.002135
3.8860,0.3031
3.8865,0.6083
3.8870,-0.002135
3.8875,-0.9177
3.8880,-1.833
3.8885,-1.833
3.8890,-0.9177
3.8895,-0.002135
3.8900,-0.002135
3.8905,-0.002135
3.8910,-0.6125
3.8915,-0.9177
3.8920,-0.3073
3.8925,0.3031
3.8930,0.6083
3.8935,-0.002135
3.8940,-0.3073
3.8945,-0.002135
3.8950,1.219
3.8955,1.219
3.8960,0.6083
3.8965,-0.002135
3.8970,-0.002135
3.8975,-0.002135
3.8980,-0.002135
3.8985,-0.6125
3.8990,-0.9177
3.8995,-1.528
3.9000,-1.528
3.9005,-1.223
3.9010,-0.3073
3.9015,-0.002135
3.9020,1.219
3.9025,2.745
3.9030,3.66
3.9035,2.745
3.9040,0.6083
3.9045,-0.002135
3.9050,1.524
3.9055,1.829
3.9060,0.3031
3.9065,-0.9177
3.9070,-0.002135
3.9075,0.9134
3.9080,-0.002135
3.9085,-3.359
3.9090,-4.275
3.9095,-2.444
3.9100,-0.3073
3.9105,-0.002135
3.9110,-0.002135
3.9115,0.3031
3.9120,1.219
3.9125,0.9134
3.9130,0.3031
3.9135,0.3031
3.9140,0.6083
3.9145,-0.002135
3.9150,-1.223
3.9155,-1.528
3.9160,-0.6125
3.9165,-0.3073
3.9170,-0.6125
3.9175,-1.223
3.9180,-1.223
3.9185,-0.9177
3.9190,-1.223
3.9195,-1.223
3.9200,-0.6125
3.9205,-0.002135
3.9210,-0.002135
3.9215,-0.3073
3.9220,-0.9177
3.9225,-0.3073
3.9230,0.6083
3.9235,1.219
3.9240,0.9134
3.9245,-0.002135
3.9250,-0.9177
3.9255,-0.9177
3.9260,-0.3073
3.9265,-0.002135
3.9270,-0.002135
3.9275,-0.6125
3.9280,-0.9177
3.9285,-0.6125
3.9290,-0.3073
3.9295,-0.3073
3.9300,-0.002135
3.9305,0.3031
3.9310,-0.002135
3.9315,-1.528
3.9320,-2.444
3.9325,-1.833
3.9330,-0.3073
3.9335,0.3031
3.9340,0.3031
3.9345,0.3031
3.9350,0.6083
3.9355,0.3031
3.9360,-0.3073
3.9365,-0.002135
3.9370,0.3031
3.9375,0.9134
3.9380,0.9134
3.9385,1.219
3.9390,0.6083
3.9395,-0.6125
3.9400,-1.833
3.9405,-1.528
3.9410,-0.002135
3.9415,0.3031
3.9420,-0.002135
3.9425,-0.3073
3.9430,0.3031
3.9435,0.6083
3.9440,0.3031
3.9445,-0.002135
3.9450,0.3031
3.9455,0.9134
3.9460,0.6083
3.9465,-0.002135
3.9470,-0.002135
3.9475,0.3031
3.9480,0.3031
3.9485,-0.002135
3.9490,-0.002135
3.9495,-0.002135
3.9500,-0.002135
3.9505,-0.002135
3.9510,0.6083
3.9515,0.9134
3.9520,-0.002135
3.9525,-2.138
3.9530,-2.749
3.9535,-1.833
3.9540,-1.223
3.9545,-1.833
3.9550,-2.749
3.9555,-1.833
3.9560,-0.3073
3.9565,0.6083
3.9570,0.3031
3.9575,0.3031
3.9580,0.6083
3.9585,1.219
3.9590,1.219
3.9595,0.6083
3.9600,-0.002135
3.9605,-0.002135
3.9610,0.9134
3.9615,1.524
3.9620,1.524
3.9625,0.9134
3.9630,0.9134
3.9635,0.9134
3.9640,-0.002135
3.9645,-1.223
3.9650,-1.223
3.9655,-0.002135
3.9660,1.219
3.9665,0.3031
3.9670,-0.3073
3.9675,-0.3073
3.9680,0.3031
3.9685,0.3031
3.9690,-0.002135
3.9695,-0.3073
3.9700,-1.223
3.9705,-2.444
3.9710,-2.749
3.9715,-0.9177
3.9720,1.524
3.9725,2.439
3.9730,1.829
3.9735,0.6083
3.9740,-0.002135
3.9745,-0.3073
3.9750,-0.9177
3.9755,-0.6125
3.9760,-0.002135
3.9765,0.3031
3.9770,-0.002135
3.9775,-0.002135
3.9780,-0.002135
3.9785,0.3031
3.9790,0.6083
3.9795,1.219
3.9800,2.439
3.9805,2.745
3.9810,1.829
3.9815,0.3031
3.9820,-0.002135
3.9825,-0.002135
3.9830,-0.002135
3.9835,-0.3073
3.9840,-0.002135
3.9845,0.6083
3.9850,1.219
3.9855,0.9134
3.9860,0.6083
3.9865,0.9134
3.9870,0.6083
3.9875,-0.002135
3.9880,-0.6125
3.9885,-0.3073
3.9890,-0.002135
3.9895,-0.002135
3.9900,-0.6125
3.9905,-1.528
3.9910,-1.833
3.9915,-1.528
3.9920,-1.223
3.9925,-1.223
3.9930,-0.3073
3.9935,0.3031
3.9940,0.9134
3.9945,0.3031
3.9950,-0.6125
3.9955,-0.3073
3.9960,1.219
3.9965,2.439
3.9970,0.9134
3.9975,-1.223
3.9980,-1.833
3.9985,-0.002135
3.9990,0.9134
3.9995,-0.002135
4.0000,-0.6125
4.0005,-0.3073
4.0010,0.3031
4.0015,-0.002135
4.0020,-1.528
4.0025,-1.223
4.0030,-0.3073
4.0035,-0.9177
4.0040,-3.054
4.0045,-3.054
4.0050,-1.223
4.0055,-0.002135
4.0060,-0.002135
4.0065,-0.3073
4.0070,0.6083
4.0075,0.6083
4.0080,-0.6125
4.0085,-1.223
4.0090,-0.3073
4.0095,0.3031
4.0100,-0.002135
4.0105,-0.002135
4.0110,0.9134
4.0115,1.524
4.0120,0.9134
4.0125,0.9134
4.0130,2.439
4.0135,2.134
4.0140,-0.002135
4.0145,-0.3073
4.0150,1.219
4.0155,1.524
4.0160,-1.833
4.0165,-4.885
4.0170,-5.19
4.0175,-6.716
4.0180,-10.07
4.0185,-6.716
4.0190,8.543
4.0195,26.55
4.0200,34.18
4.0205,32.04
4.0210,29.6
4.0215,28.69
4.0220,24.11
4.0225,15.26
4.0230,6.407
4.0235,-0.002135
4.0240,-5.801
4.0245,-10.99
4.0250,-13.74
4.0255,-14.96
4.0260,-15.26
4.0265,-12.21
4.0270,-7.022
4.0275,-6.411
4.0280,-11.29
4.0285,-15.87
4.0290,-18.01
4.0295,-28.69
4.0300,-52.19
4.0305,-74.16
4.0310,-78.74
4.0315,-68.98
4.0320,-58.9
4.0325,-51.89
4.0330,-43.34
4.0335,-37.54
4.0340,-40.9
4.0345,-47.31
4.0350,-45.17
4.0355,-32.05
4.0360,-14.35
4.0365,7.628
4.0370,36.01
4.0375,63.78
4.0380,82.71
4.0385,95.52
4.0390,108.6
4.0395,116.3
4.0400,108
4.0405,88.5
4.0410,71.72
4.0415,62.56
4.0420,55.24
4.0425,46.08
4.0430,37.23
4.0435,23.8
4.0440,1.829
4.0445,-22.59
4.0450,-36.63
4.0455,-39.37
4.0460,-39.98
4.0465,-43.03
4.0470,-44.26
4.0475,-41.81
4.0480,-38.15
4.0485,-32.05
4.0490,-18.31
4.0495,3.965
4.0500,28.99
4.0505,48.52
4.0510,59.82
4.0515,69.58
4.0520,93.08
4.0525,145.3
4.0530,218.8
4.0535,279.9
4.0540,290.8
4.0545,246
4.0550,168.2
4.0555,83.01
4.0560,2.745
4.0565,-69.28
4.0570,-130.9
4.0575,-181.6
4.0580,-225.2
4.0585,-262.8
4.0590,-289
4.0595,-297.6
4.0600,-286.9
4.0605,-259.7
4.0610,-218.8
4.0615,-168.8
4.0620,-116.3
4.0625,-64.4
4.0630,-9.463
4.0635,53.41
4.0640,119.9
4.0645,171.5
4.0650,187.7
4.0655,164.8
4.0660,119
4.0665,72.33
4.0670,33.26
4.0675,-1.528
4.0680,-39.07
4.0685,-79.35
4.0690,-116
4.0695,-137.6
4.0700,-132.2
4.0705,-97.97
4.0710,-51.58
4.0715,-15.57
4.0720,-0.9177
4.0725,-0.6125
4.0730,-2.749
4.0735,-3.359
4.0740,-3.054
4.0745,-1.833
4.0750,0.9134
4.0755,3.66
4.0760,4.576
4.0765,5.797
4.0770,8.543
4.0775,11.6
4.0780,13.12
4.0785,14.34
4.0790,15.87
4.0795,16.78
4.0800,16.78
4.0805,17.09
4.0810,18.61
4.0815,18.92
4.0820,18
4.0825,18
4.0830,19.23
4.0835,19.23
4.0840,17.7
4.0845,16.48
4.0850,16.78
4.0855,17.09
4.0860,16.78
4.0865,16.48
4.0870,16.48
4.0875,15.26
4.0880,12.51
4.0885,11.9
4.0890,13.73
4.0895,14.95
4.0900,13.43
4.0905,11.9
4.0910,12.82
4.0915,14.34
4.0920,13.43
4.0925,10.98
4.0930,10.07
4.0935,10.07
4.0940,9.154
4.0945,8.238
4.0950,8.543
4.0955,9.154
4.0960,8.238
4.0965,7.017
4.0970,7.017
4.0975,8.543
4.0980,8.543
4.0985,7.017
4.0990,6.102
4.0995,6.712
4.1000,7.017
4.1005,6.407
4.1010,7.323
4.1015,8.849
4.1020,8.543
4.1025,6.102
4.1030,4.271
4.1035,5.491
4.1040,7.323
4.1045,6.712
4.1050,4.881
4.1055,5.491
4.1060,7.628
4.1065,7.933
4.1070,6.407
4.1075,5.186
4.1080,5.186
4.1085,4.576
4.1090,2.745
4.1095,1.829
4.1100,3.05
4.1105,4.576
4.1110,3.965
4.1115,2.134
4.1120,0.6083
4.1125,-0.002135
4.1130,-0.002135
4.1135,0.3031
4.1140,1.829
4.1145,3.355
4.1150,3.355
4.1155,2.745
4.1160,2.745
4.1165,3.965
4.1170,4.881
4.1175,4.271
4.1180,3.05
4.1185,0.9134
4.1190,-1.223
4.1195,-3.054
4.1200,-4.275
4.1205,-3.97
4.1210,-3.359
4.1215,-2.444
4.1220,-1.223
4.1225,-0.3073
4.1230,0.3031
4.1235,1.219
4.1240,1.829
4.1245,1.829
4.1250,1.219
4.1255,1.524
4.1260,2.134
4.1265,2.439
4.1270,1.829
4.1275,0.9134
4.1280,0.6083
4.1285,0.9134
4.1290,0.9134
4.1295,0.6083
4.1300,0.3031
4.1305,0.3031
4.1310,0.3031
4.1315,-0.002135
4.1320,-0.002135
4.1325,-0.002135
4.1330,-0.002135
4.1335,-0.002135
4.1340,-0.3073
4.1345,-1.528
4.1350,-3.054
4.1355,-3.97
4.1360,-2.444
4.1365,-0.3073
4.1370,-0.002135
4.1375,-0.9177
4.1380,-2.444
4.1385,-2.444
4.1390,-3.054
4.1395,-5.19
4.1400,-7.937
4.1405,-9.158
4.1410,-9.768
4.1415,-10.68
4.1420,-11.29
4.1425,-9.768
4.1430,-6.716
4.1435,-3.054
4.1440,-0.002135
4.1445,3.05
4.1450,7.017
4.1455,10.07
4.1460,11.29
4.1465,10.68
4.1470,9.459
4.1475,7.017
4.1480,3.66
4.1485,-2.444
4.1490,-14.04
4.1495,-30.83
4.1500,-47.31
4.1505,-56.16
4.1510,-55.55
4.1515,-50.66
4.1520,-45.48
4.1525,-40.59
4.1530,-33.88
4.1535,-25.03
4.1540,-15.87
4.1545,-6.411
4.1550,3.355
4.1555,13.43
4.1560,20.75
4.1565,25.63
4.1570,31.74
4.1575,40.89
4.1580,50.35
4.1585,54.32
4.1590,50.66
4.1595,41.5
4.1600,30.52
4.1605,20.75
4.1610,16.78
4.1615,20.14
4.1620,24.11
4.1625,21.06
4.1630,14.95
4.1635,14.34
4.1640,17.09
4.1645,5.797
4.1650,-26.86
4.1655,-64.7
4.1660,-84.24
4.1665,-81.49
4.1670,-71.11
4.1675,-62.26
4.1680,-51.58
4.1685,-36.93
4.1690,-25.33
4.1695,-22.59
4.1700,-24.11
4.1705,-23.81
4.1710,-21.06
4.1715,-15.87
4.1720,-6.106
4.1725,7.323
4.1730,19.23
4.1735,24.72
4.1740,28.38
4.1745,36.01
4.1750,44.86
4.1755,46.39
4.1760,40.89
4.1765,37.23
4.1770,39.37
4.1775,41.5
4.1780,36.93
4.1785,28.08
4.1790,20.45
4.1795,15.26
4.1800,9.154
4.1805,1.524
4.1810,-3.359
4.1815,-4.885
4.1820,-5.496
4.1825,-7.327
4.1830,-7.937
4.1835,-7.022
4.1840,-6.716
4.1845,-9.158
4.1850,-10.68
4.1855,-8.548
4.1860,-4.58
4.1865,-3.664
4.1870,-7.632
4.1875,-11.9
4.1880,-13.43
4.1885,-11.9
4.1890,-9.463
4.1895,-7.937
4.1900,-7.937
4.1905,-8.242
4.1910,-6.411
4.1915,-3.97
4.1920,-5.19
4.1925,-10.38
4.1930,-15.87
4.1935,-18.92
4.1940,-20.76
4.1945,-22.59
4.1950,-21.98
4.1955,-18.01
4.1960,-14.35
4.1965,-14.65
4.1970,-16.18
4.1975,-14.65
4.1980,-13.74
4.1985,-17.4
4.1990,-22.89
4.1995,-24.42
4.2000,-24.11
4.2005,-27.16
4.2010,-31.74
4.2015,-29
4.2020,-14.96
4.2025,2.745
4.2030,14.34
4.2035,18.31
4.2040,21.67
4.2045,32.35
4.2050,52.8
4.2055,73.24
4.2060,81.48
4.2065,77.82
4.2070,75.08
4.2075,79.35
4.2080,79.65
4.2085,65
4.2090,44.56
4.2095,35.71
4.2100,40.89
4.2105,47.61
4.2110,47
4.2115,43.95
