MegaWin ASCII file

[DEFINITIONS]
ChannelCount=8
DataType=1
SamplingFreq=1000.000000
FirstSampleTime=0.001000
PhaseName=Raw Dynamic 15/12/2017 10:44:11


[COMMENT]



[SOURCE NAMES]
Quadriceps femoris muscle - rectus femoris
Quadriceps femoris muscle - rectus femoris
Quadriceps femoris muscle - rectus femoris
Quadriceps femoris muscle - rectus femoris
Quadriceps femoris muscle - vastus lateralis
Quadriceps femoris muscle - vastus lateralis


[SIDE INFO]
R
R
R
R
R
R


[UNITS]
uV
uV
uV
uV
uV
uV






[DATA]
	35.00	19.00	16.00	-16.00	8140.00	8115.00
	23.00	16.00	6.00	-17.00	8138.00	8113.00
	2.00	11.00	2.00	-8.00	8138.00	8112.00
	-15.00	4.00	0.00	3.00	8137.00	8112.00
	-40.00	-15.00	-4.00	20.00	8135.00	8110.00
	-59.00	-18.00	-6.00	38.00	8136.00	8110.00
	-72.00	-13.00	-8.00	44.00	8135.00	8110.00
	-83.00	-3.00	-11.00	40.00	8133.00	8108.00
	-86.00	8.00	-13.00	40.00	8134.00	8110.00
	-78.00	12.00	-13.00	31.00	8133.00	8108.00
	-56.00	13.00	-19.00	19.00	8133.00	8108.00
	-25.00	12.00	-21.00	9.00	8133.00	8108.00
	4.00	10.00	-20.00	-4.00	8133.00	8108.00
	3.00	11.00	-20.00	-20.00	8132.00	8107.00
	26.00	10.00	-17.00	-30.00	8132.00	8107.00
	59.00	10.00	-14.00	-39.00	8132.00	8107.00
	87.00	12.00	-7.00	-47.00	8132.00	8107.00
	94.00	9.00	-2.00	-54.00	8132.00	8107.00
	90.00	5.00	6.00	-59.00	8131.00	8106.00
	77.00	4.00	13.00	-53.00	8132.00	8106.00
	60.00	-2.00	25.00	-32.00	8131.00	8106.00
	42.00	-6.00	33.00	-5.00	8132.00	8106.00
	11.00	-12.00	32.00	14.00	8129.00	8105.00
	-22.00	-18.00	27.00	35.00	8130.00	8105.00
	-46.00	-22.00	19.00	50.00	8130.00	8105.00
	-76.00	-25.00	8.00	65.00	8130.00	8105.00
	-94.00	-26.00	-2.00	69.00	8129.00	8104.00
	-90.00	-26.00	4.00	61.00	8131.00	8106.00
	-85.00	-29.00	2.00	53.00	8129.00	8105.00
	-71.00	-29.00	-4.00	45.00	8130.00	8105.00
	-54.00	-25.00	-8.00	26.00	8129.00	8104.00
	-28.00	-15.00	-8.00	6.00	8130.00	8105.00
	1.00	2.00	-12.00	-17.00	8129.00	8105.00
	28.00	15.00	-14.00	-34.00	8130.00	8105.00
	51.00	25.00	-17.00	-48.00	8129.00	8103.00
	72.00	40.00	-15.00	-60.00	8128.00	8104.00
	92.00	48.00	-11.00	-67.00	8129.00	8104.00
	106.00	50.00	-6.00	-62.00	8129.00	8104.00
	109.00	42.00	-6.00	-54.00	8129.00	8103.00
	96.00	34.00	-6.00	-45.00	8129.00	8103.00
	71.00	16.00	-6.00	-28.00	8128.00	8103.00
	41.00	-10.00	-7.00	-5.00	8129.00	8104.00
	3.00	-31.00	-7.00	20.00	8128.00	8103.00
	-33.00	-39.00	-2.00	36.00	8128.00	8104.00
	-61.00	-34.00	5.00	43.00	8128.00	8103.00
	-83.00	-24.00	9.00	57.00	8129.00	8104.00
	-92.00	-14.00	8.00	59.00	8128.00	8104.00
	-98.00	-2.00	11.00	54.00	8128.00	8103.00
	-93.00	1.00	13.00	49.00	8127.00	8102.00
	-83.00	0.00	13.00	46.00	8127.00	8103.00
	-78.00	-2.00	9.00	32.00	8128.00	8103.00
	-67.00	-10.00	3.00	12.00	8128.00	8103.00
	-29.00	-16.00	-3.00	-7.00	8127.00	8102.00
	20.00	-17.00	-6.00	-26.00	8128.00	8103.00
	56.00	-9.00	-9.00	-44.00	8128.00	8103.00
	72.00	0.00	-13.00	-56.00	8127.00	8102.00
	94.00	8.00	-18.00	-63.00	8128.00	8103.00
	97.00	24.00	-18.00	-72.00	8128.00	8103.00
	104.00	34.00	-15.00	-71.00	8127.00	8103.00
	101.00	37.00	-14.00	-56.00	8127.00	8103.00
	69.00	33.00	-13.00	-36.00	8128.00	8102.00
	39.00	33.00	-10.00	-26.00	8128.00	8103.00
	9.00	30.00	-8.00	-11.00	8128.00	8102.00
	-23.00	22.00	-3.00	13.00	8127.00	8103.00
	-59.00	-4.00	3.00	36.00	8128.00	8103.00
	-86.00	-40.00	7.00	55.00	8128.00	8104.00
	-101.00	-57.00	15.00	68.00	8129.00	8105.00
	-111.00	-61.00	17.00	72.00	8128.00	8104.00
	-109.00	-53.00	13.00	64.00	8128.00	8103.00
	-102.00	-45.00	6.00	52.00	8128.00	8103.00
	-81.00	-35.00	2.00	39.00	8128.00	8103.00
	-57.00	-24.00	-3.00	22.00	8128.00	8104.00
	-28.00	-16.00	-3.00	1.00	8128.00	8104.00
	10.00	-7.00	6.00	-21.00	8129.00	8104.00
	45.00	6.00	12.00	-41.00	8128.00	8104.00
	76.00	14.00	15.00	-56.00	8129.00	8104.00
	96.00	18.00	10.00	-66.00	8129.00	8104.00
	105.00	19.00	4.00	-67.00	8129.00	8103.00
	105.00	19.00	-4.00	-65.00	8128.00	8103.00
	95.00	19.00	-7.00	-59.00	8128.00	8103.00
	73.00	18.00	-8.00	-48.00	8128.00	8103.00
	50.00	14.00	-9.00	-31.00	8128.00	8103.00
	25.00	7.00	-13.00	-13.00	8129.00	8103.00
	-9.00	2.00	-13.00	8.00	8128.00	8104.00
	-42.00	-7.00	-11.00	24.00	8128.00	8104.00
	-82.00	-13.00	-11.00	43.00	8128.00	8104.00
	-91.00	-18.00	-10.00	50.00	8127.00	8103.00
	-86.00	-20.00	-11.00	53.00	8127.00	8103.00
	-77.00	-22.00	-7.00	51.00	8129.00	8104.00
	-69.00	-21.00	-4.00	46.00	8128.00	8103.00
	-50.00	-14.00	1.00	34.00	8128.00	8104.00
	-33.00	-8.00	2.00	24.00	8128.00	8103.00
	-13.00	-9.00	0.00	16.00	8128.00	8104.00
	12.00	-7.00	-7.00	1.00	8129.00	8104.00
	37.00	-1.00	-10.00	-13.00	8128.00	8103.00
	58.00	1.00	-7.00	-26.00	8130.00	8104.00
	70.00	4.00	-4.00	-38.00	8129.00	8104.00
	72.00	8.00	-3.00	-50.00	8128.00	8103.00
	70.00	7.00	-3.00	-47.00	8128.00	8103.00
	63.00	5.00	4.00	-34.00	8130.00	8104.00
	46.00	0.00	12.00	-20.00	8129.00	8104.00
	24.00	-2.00	13.00	-11.00	8129.00	8104.00
	0.00	-3.00	12.00	2.00	8128.00	8104.00
	-32.00	-8.00	10.00	13.00	8128.00	8104.00
	-57.00	-12.00	11.00	30.00	8128.00	8104.00
	-80.00	-16.00	9.00	44.00	8128.00	8103.00
	-86.00	-12.00	12.00	43.00	8128.00	8103.00
	-84.00	-10.00	9.00	43.00	8128.00	8104.00
	-82.00	-9.00	5.00	43.00	8128.00	8104.00
	-70.00	-8.00	2.00	40.00	8129.00	8104.00
	-48.00	-4.00	-2.00	27.00	8128.00	8104.00
	-28.00	1.00	-4.00	13.00	8128.00	8103.00
	2.00	6.00	-6.00	-4.00	8129.00	8103.00
	34.00	12.00	-4.00	-24.00	8128.00	8103.00
	59.00	16.00	-6.00	-39.00	8128.00	8103.00
	78.00	18.00	-7.00	-51.00	8129.00	8104.00
	95.00	20.00	-10.00	-63.00	8128.00	8103.00
	103.00	20.00	-12.00	-66.00	8128.00	8103.00
	106.00	21.00	-13.00	-66.00	8128.00	8103.00
	95.00	21.00	-15.00	-54.00	8129.00	8103.00
	68.00	17.00	-18.00	-36.00	8129.00	8104.00
	43.00	14.00	-14.00	-19.00	8129.00	8104.00
	11.00	10.00	-10.00	0.00	8129.00	8104.00
	-29.00	-1.00	-9.00	24.00	8128.00	8104.00
	-62.00	-8.00	-2.00	41.00	8129.00	8104.00
	-87.00	-14.00	10.00	47.00	8128.00	8103.00
	-103.00	-21.00	13.00	54.00	8128.00	8104.00
	-102.00	-25.00	9.00	55.00	8128.00	8103.00
	-96.00	-24.00	5.00	52.00	8128.00	8104.00
	-84.00	-20.00	-2.00	47.00	8128.00	8103.00
	-60.00	-16.00	0.00	38.00	8128.00	8104.00
	-40.00	-10.00	-2.00	22.00	8128.00	8103.00
	-10.00	-2.00	0.00	4.00	8128.00	8104.00
	23.00	5.00	1.00	-14.00	8129.00	8104.00
	52.00	8.00	2.00	-31.00	8129.00	8104.00
	79.00	11.00	7.00	-44.00	8129.00	8104.00
	95.00	3.00	8.00	-49.00	8130.00	8104.00
	102.00	2.00	6.00	-55.00	8129.00	8104.00
	102.00	-2.00	0.00	-55.00	8128.00	8103.00
	87.00	-10.00	-7.00	-48.00	8128.00	8103.00
	64.00	-11.00	-7.00	-36.00	8129.00	8104.00
	37.00	-8.00	-4.00	-22.00	8129.00	8103.00
	-2.00	-11.00	-5.00	-1.00	8128.00	8104.00
	-43.00	-9.00	-2.00	23.00	8128.00	8104.00
	-71.00	-4.00	4.00	40.00	8128.00	8104.00
	-93.00	0.00	12.00	56.00	8128.00	8103.00
	-106.00	1.00	17.00	65.00	8127.00	8103.00
	-113.00	-1.00	17.00	71.00	8128.00	8103.00
	-108.00	1.00	14.00	68.00	8128.00	8104.00
	-92.00	7.00	7.00	57.00	8128.00	8103.00
	-67.00	10.00	3.00	42.00	8128.00	8104.00
	-41.00	4.00	0.00	23.00	8128.00	8104.00
	-11.00	3.00	1.00	-5.00	8129.00	8104.00
	23.00	8.00	-3.00	-30.00	8129.00	8104.00
	50.00	10.00	-9.00	-42.00	8129.00	8104.00
	71.00	12.00	-13.00	-55.00	8128.00	8103.00
	95.00	17.00	-9.00	-69.00	8129.00	8104.00
	110.00	21.00	-4.00	-78.00	8129.00	8103.00
	111.00	21.00	-4.00	-76.00	8129.00	8104.00
	97.00	12.00	-7.00	-65.00	8129.00	8104.00
	71.00	2.00	-9.00	-44.00	8129.00	8104.00
	42.00	-6.00	-9.00	-27.00	8129.00	8104.00
	12.00	-13.00	-9.00	-6.00	8129.00	8104.00
	-23.00	-17.00	-6.00	13.00	8128.00	8104.00
	-52.00	-22.00	-3.00	31.00	8129.00	8104.00
	-79.00	-26.00	0.00	46.00	8129.00	8104.00
	-95.00	-30.00	-5.00	54.00	8128.00	8104.00
	-96.00	-29.00	-5.00	54.00	8129.00	8104.00
	-92.00	-23.00	-2.00	48.00	8128.00	8103.00
	-78.00	-19.00	0.00	38.00	8128.00	8103.00
	-59.00	-15.00	-6.00	28.00	8128.00	8104.00
	-40.00	-12.00	-12.00	16.00	8128.00	8104.00
	-11.00	-5.00	-12.00	-1.00	8129.00	8104.00
	19.00	-1.00	-12.00	-17.00	8129.00	8104.00
	45.00	5.00	-10.00	-34.00	8129.00	8104.00
	69.00	11.00	-7.00	-47.00	8128.00	8104.00
	91.00	17.00	-3.00	-59.00	8128.00	8103.00
	101.00	21.00	4.00	-68.00	8129.00	8104.00
	105.00	25.00	11.00	-74.00	8129.00	8103.00
	95.00	23.00	11.00	-65.00	8128.00	8103.00
	68.00	12.00	5.00	-41.00	8128.00	8103.00
	38.00	2.00	-2.00	-20.00	8128.00	8103.00
	1.00	-8.00	-2.00	5.00	8128.00	8103.00
	-34.00	-15.00	0.00	27.00	8128.00	8103.00
	-66.00	-24.00	-3.00	48.00	8127.00	8103.00
	-94.00	-27.00	-2.00	62.00	8128.00	8103.00
	-105.00	-26.00	4.00	66.00	8128.00	8103.00
	-108.00	-24.00	4.00	67.00	8128.00	8103.00
	-104.00	-22.00	3.00	62.00	8128.00	8103.00
	-84.00	-13.00	6.00	47.00	8128.00	8104.00
	-62.00	-7.00	5.00	31.00	8128.00	8104.00
	-37.00	2.00	6.00	13.00	8129.00	8104.00
	-6.00	9.00	5.00	-3.00	8129.00	8104.00
	26.00	8.00	2.00	-21.00	8129.00	8104.00
	51.00	10.00	-3.00	-34.00	8129.00	8104.00
	76.00	16.00	-3.00	-47.00	8129.00	8104.00
	93.00	17.00	-5.00	-52.00	8129.00	8104.00
	103.00	18.00	-6.00	-55.00	8128.00	8103.00
	104.00	22.00	-7.00	-57.00	8129.00	8104.00
	96.00	25.00	2.00	-54.00	8128.00	8103.00
	74.00	19.00	5.00	-41.00	8129.00	8104.00
	49.00	15.00	5.00	-23.00	8129.00	8104.00
	15.00	2.00	0.00	-2.00	8129.00	8104.00
	-21.00	-5.00	0.00	22.00	8128.00	8104.00
	-56.00	-17.00	-2.00	44.00	8129.00	8104.00
	-88.00	-24.00	-3.00	58.00	8128.00	8104.00
	-101.00	-25.00	0.00	61.00	8128.00	8104.00
	-103.00	-23.00	1.00	61.00	8127.00	8103.00
	-101.00	-22.00	1.00	58.00	8129.00	8104.00
	-90.00	-23.00	-5.00	51.00	8128.00	8104.00
	-71.00	-20.00	-10.00	37.00	8128.00	8104.00
	-46.00	-16.00	-10.00	24.00	8128.00	8104.00
	-14.00	-7.00	-6.00	1.00	8128.00	8103.00
	19.00	3.00	-3.00	-18.00	8129.00	8104.00
	48.00	11.00	4.00	-39.00	8128.00	8103.00
	73.00	19.00	8.00	-56.00	8129.00	8104.00
	94.00	23.00	8.00	-65.00	8129.00	8104.00
	103.00	23.00	3.00	-64.00	8129.00	8104.00
	106.00	22.00	3.00	-66.00	8128.00	8103.00
	95.00	17.00	3.00	-56.00	8129.00	8104.00
	70.00	9.00	0.00	-41.00	8128.00	8103.00
	45.00	4.00	1.00	-23.00	8128.00	8103.00
	10.00	-4.00	0.00	-2.00	8129.00	8103.00
	-25.00	-13.00	-2.00	21.00	8128.00	8104.00
	-59.00	-20.00	-3.00	43.00	8128.00	8104.00
	-88.00	-23.00	0.00	59.00	8128.00	8103.00
	-104.00	-25.00	2.00	63.00	8128.00	8103.00
	-104.00	-24.00	1.00	63.00	8128.00	8103.00
	-100.00	-21.00	0.00	60.00	8128.00	8104.00
	-87.00	-16.00	0.00	47.00	8128.00	8104.00
	-62.00	-8.00	3.00	29.00	8129.00	8104.00
	-38.00	-4.00	1.00	17.00	8129.00	8104.00
	-10.00	-1.00	-2.00	1.00	8129.00	8105.00
	21.00	3.00	-5.00	-19.00	8129.00	8104.00
	49.00	11.00	-7.00	-35.00	8129.00	8104.00
	74.00	16.00	-8.00	-49.00	8129.00	8104.00
	94.00	19.00	-10.00	-58.00	8129.00	8104.00
	100.00	16.00	-13.00	-63.00	8129.00	8104.00
	106.00	22.00	-4.00	-65.00	8128.00	8104.00
	95.00	18.00	1.00	-59.00	8128.00	8103.00
	71.00	11.00	1.00	-40.00	8129.00	8104.00
	46.00	6.00	3.00	-26.00	8128.00	8104.00
	13.00	-4.00	3.00	-3.00	8129.00	8104.00
	-27.00	-13.00	-2.00	20.00	8127.00	8103.00
	-60.00	-17.00	-2.00	40.00	8128.00	8103.00
	-87.00	-22.00	0.00	56.00	8127.00	8103.00
	-106.00	-27.00	-3.00	64.00	8128.00	8104.00
	-110.00	-26.00	-4.00	66.00	8128.00	8103.00
	-106.00	-23.00	-2.00	61.00	8128.00	8103.00
	-89.00	-12.00	6.00	44.00	8128.00	8103.00
	-62.00	-5.00	8.00	28.00	8128.00	8104.00
	-40.00	-1.00	5.00	13.00	8128.00	8104.00
	-10.00	6.00	3.00	-3.00	8129.00	8104.00
	21.00	11.00	-2.00	-19.00	8129.00	8103.00
	49.00	15.00	-4.00	-36.00	8129.00	8104.00
	72.00	18.00	-5.00	-48.00	8129.00	8105.00
	96.00	23.00	-6.00	-58.00	8128.00	8103.00
	107.00	21.00	-6.00	-64.00	8129.00	8104.00
	108.00	19.00	-7.00	-61.00	8130.00	8105.00
	97.00	16.00	-7.00	-51.00	8129.00	8104.00
	72.00	8.00	-7.00	-33.00	8129.00	8104.00
	45.00	4.00	-4.00	-18.00	8129.00	8104.00
	10.00	-6.00	-2.00	6.00	8128.00	8104.00
	-30.00	-16.00	-4.00	32.00	8129.00	8104.00
	-66.00	-27.00	-6.00	54.00	8128.00	8103.00
	-92.00	-30.00	-3.00	70.00	8129.00	8104.00
	-108.00	-34.00	-2.00	75.00	8129.00	8104.00
	-108.00	-29.00	1.00	70.00	8129.00	8104.00
	-108.00	-30.00	-4.00	67.00	8128.00	8103.00
	-97.00	-24.00	-3.00	56.00	8128.00	8104.00
	-71.00	-13.00	3.00	34.00	8129.00	8104.00
	-40.00	-3.00	8.00	10.00	8128.00	8104.00
	-8.00	4.00	4.00	-9.00	8129.00	8104.00
	28.00	13.00	5.00	-32.00	8129.00	8104.00
	55.00	16.00	2.00	-44.00	8129.00	8104.00
	78.00	19.00	-3.00	-55.00	8129.00	8104.00
	94.00	19.00	-5.00	-64.00	8129.00	8104.00
	105.00	21.00	-3.00	-71.00	8129.00	8104.00
	111.00	26.00	6.00	-78.00	8128.00	8103.00
	101.00	23.00	7.00	-67.00	8128.00	8104.00
	72.00	12.00	1.00	-45.00	8128.00	8104.00
	46.00	4.00	-2.00	-28.00	8128.00	8103.00
	13.00	-2.00	2.00	-6.00	8128.00	8102.00
	-25.00	-9.00	3.00	13.00	8127.00	8102.00
	-55.00	-13.00	6.00	32.00	8128.00	8103.00
	-85.00	-19.00	7.00	49.00	8128.00	8103.00
	-99.00	-18.00	8.00	55.00	8128.00	8104.00
	-104.00	-19.00	5.00	56.00	8128.00	8103.00
	-103.00	-20.00	3.00	57.00	8128.00	8103.00
	-89.00	-18.00	1.00	49.00	8128.00	8103.00
	-67.00	-11.00	0.00	34.00	8129.00	8104.00
	-44.00	-8.00	-3.00	15.00	8128.00	8103.00
	-10.00	1.00	-2.00	-3.00	8129.00	8104.00
	24.00	7.00	-5.00	-24.00	8129.00	8104.00
	51.00	11.00	-7.00	-37.00	8129.00	8104.00
	74.00	13.00	-12.00	-46.00	8129.00	8104.00
	91.00	12.00	-13.00	-55.00	8130.00	8105.00
	102.00	16.00	-9.00	-62.00	8128.00	8103.00
	110.00	19.00	-4.00	-64.00	8129.00	8104.00
	94.00	13.00	-4.00	-51.00	8129.00	8104.00
	69.00	5.00	-5.00	-34.00	8129.00	8104.00
	45.00	2.00	1.00	-22.00	8129.00	8104.00
	12.00	-4.00	3.00	-3.00	8129.00	8104.00
	-26.00	-10.00	3.00	19.00	8129.00	8104.00
	-61.00	-19.00	0.00	44.00	8129.00	8104.00
	-92.00	-26.00	0.00	62.00	8129.00	8104.00
	-106.00	-26.00	0.00	66.00	8128.00	8103.00
	-107.00	-23.00	0.00	67.00	8127.00	8103.00
	-104.00	-22.00	0.00	63.00	8129.00	8104.00
	-90.00	-16.00	0.00	50.00	8128.00	8104.00
	-68.00	-9.00	1.00	35.00	8129.00	8104.00
	-39.00	0.00	3.00	13.00	8128.00	8104.00
	-10.00	4.00	1.00	-3.00	8129.00	8104.00
	24.00	11.00	2.00	-24.00	8128.00	8103.00
	50.00	15.00	0.00	-38.00	8129.00	8104.00
	75.00	17.00	-4.00	-52.00	8129.00	8104.00
	98.00	23.00	0.00	-64.00	8129.00	8104.00
	107.00	22.00	0.00	-68.00	8129.00	8104.00
	110.00	23.00	-3.00	-67.00	8129.00	8104.00
	98.00	16.00	-2.00	-58.00	8128.00	8103.00
	72.00	9.00	-2.00	-38.00	8129.00	8104.00
	41.00	-4.00	-6.00	-19.00	8129.00	8104.00
	9.00	-7.00	1.00	0.00	8129.00	8104.00
	-27.00	-13.00	4.00	20.00	8129.00	8104.00
	-61.00	-19.00	3.00	40.00	8129.00	8104.00
	-89.00	-24.00	4.00	57.00	8128.00	8104.00
	-105.00	-29.00	3.00	66.00	8130.00	8105.00
	-109.00	-29.00	1.00	67.00	8128.00	8104.00
	-107.00	-25.00	0.00	64.00	8128.00	8103.00
	-90.00	-17.00	1.00	50.00	8128.00	8103.00
	-66.00	-12.00	-2.00	35.00	8129.00	8104.00
	-42.00	-6.00	-5.00	17.00	8129.00	8104.00
	-10.00	4.00	-3.00	-4.00	8129.00	8104.00
	23.00	8.00	-4.00	-22.00	8129.00	8104.00
	48.00	10.00	-10.00	-35.00	8128.00	8104.00
	73.00	15.00	-7.00	-52.00	8128.00	8103.00
	96.00	22.00	0.00	-65.00	8129.00	8104.00
	106.00	24.00	4.00	-74.00	8128.00	8103.00
	112.00	28.00	8.00	-77.00	8129.00	8103.00
	101.00	24.00	8.00	-67.00	8128.00	8103.00
	77.00	14.00	5.00	-45.00	8129.00	8104.00
	47.00	2.00	1.00	-24.00	8128.00	8103.00
	12.00	-5.00	-2.00	-1.00	8128.00	8103.00
	-26.00	-13.00	0.00	25.00	8128.00	8103.00
	-62.00	-21.00	-4.00	46.00	8128.00	8103.00
	-91.00	-25.00	-4.00	64.00	8128.00	8103.00
	-106.00	-29.00	-4.00	73.00	8129.00	8104.00
	-113.00	-32.00	-8.00	76.00	8129.00	8104.00
	-109.00	-27.00	-6.00	68.00	8128.00	8103.00
	-93.00	-19.00	-4.00	57.00	8128.00	8104.00
	-66.00	-10.00	1.00	38.00	8128.00	8104.00
	-40.00	-4.00	1.00	22.00	8128.00	8104.00
	-8.00	2.00	-2.00	3.00	8128.00	8104.00
	28.00	10.00	1.00	-20.00	8129.00	8104.00
	58.00	19.00	5.00	-43.00	8129.00	8104.00
	87.00	27.00	10.00	-60.00	8129.00	8104.00
	105.00	28.00	9.00	-70.00	8129.00	8104.00
	111.00	24.00	1.00	-69.00	8129.00	8104.00
	109.00	19.00	-4.00	-63.00	8129.00	8104.00
	91.00	10.00	-12.00	-47.00	8129.00	8104.00
	62.00	1.00	-14.00	-28.00	8129.00	8104.00
	33.00	-8.00	-15.00	-8.00	8130.00	8104.00
	1.00	-11.00	-7.00	9.00	8128.00	8104.00
	-36.00	-17.00	-2.00	31.00	8128.00	8104.00
	-69.00	-23.00	2.00	50.00	8129.00	8104.00
	-91.00	-20.00	11.00	55.00	8128.00	8104.00
	-105.00	-20.00	15.00	62.00	8128.00	8104.00
	-111.00	-22.00	9.00	65.00	8128.00	8103.00
	-107.00	-19.00	7.00	60.00	8128.00	8103.00
	-91.00	-14.00	7.00	46.00	8128.00	8103.00
	-66.00	-9.00	8.00	30.00	8128.00	8103.00
	-42.00	-2.00	4.00	16.00	8128.00	8104.00
	-13.00	3.00	1.00	-2.00	8129.00	8104.00
	24.00	10.00	-3.00	-25.00	8128.00	8103.00
	54.00	17.00	-4.00	-41.00	8128.00	8104.00
	81.00	20.00	-6.00	-55.00	8129.00	8104.00
	102.00	24.00	-6.00	-67.00	8129.00	8104.00
	114.00	26.00	-5.00	-72.00	8129.00	8103.00
	116.00	26.00	-6.00	-71.00	8129.00	8104.00
	106.00	22.00	-5.00	-61.00	8129.00	8104.00
	79.00	13.00	-4.00	-41.00	8130.00	8104.00
	48.00	3.00	-5.00	-23.00	8129.00	8103.00
	11.00	-8.00	-7.00	1.00	8129.00	8104.00
	-32.00	-16.00	-8.00	27.00	8128.00	8104.00
	-68.00	-26.00	-11.00	51.00	8129.00	8104.00
	-95.00	-30.00	-10.00	65.00	8129.00	8104.00
	-112.00	-32.00	-8.00	72.00	8129.00	8104.00
	-117.00	-30.00	-6.00	70.00	8128.00	8104.00
	-117.00	-33.00	-8.00	71.00	8128.00	8104.00
	-104.00	-30.00	-7.00	59.00	8128.00	8103.00
	-79.00	-22.00	-7.00	41.00	8128.00	8104.00
	-46.00	-5.00	10.00	12.00	8128.00	8104.00
	-12.00	5.00	10.00	-13.00	8129.00	8104.00
	26.00	14.00	12.00	-36.00	8129.00	8104.00
	56.00	19.00	9.00	-54.00	8129.00	8103.00
	78.00	17.00	-2.00	-59.00	8128.00	8104.00
	97.00	19.00	-5.00	-71.00	8129.00	8104.00
	114.00	27.00	3.00	-81.00	8127.00	8102.00
	115.00	28.00	6.00	-79.00	8128.00	8103.00
	104.00	25.00	5.00	-70.00	8129.00	8104.00
	86.00	26.00	12.00	-60.00	8129.00	8103.00
	58.00	18.00	13.00	-40.00	8129.00	8103.00
	17.00	2.00	4.00	-8.00	8129.00	8103.00
	-21.00	-6.00	5.00	18.00	8128.00	8103.00
	-57.00	-16.00	4.00	40.00	8128.00	8104.00
	-87.00	-22.00	4.00	58.00	8128.00	8103.00
	-106.00	-26.00	1.00	71.00	8128.00	8104.00
	-113.00	-29.00	-3.00	73.00	8128.00	8103.00
	-109.00	-23.00	1.00	65.00	8128.00	8103.00
	-92.00	-18.00	3.00	51.00	8128.00	8103.00
	-70.00	-13.00	-3.00	40.00	8128.00	8103.00
	-47.00	-9.00	-6.00	24.00	8127.00	8103.00
	-17.00	-4.00	-11.00	6.00	8128.00	8104.00
	20.00	3.00	-12.00	-15.00	8129.00	8104.00
	51.00	9.00	-14.00	-32.00	8129.00	8104.00
	75.00	9.00	-20.00	-44.00	8129.00	8104.00
	100.00	16.00	-15.00	-59.00	8129.00	8104.00
	115.00	23.00	-7.00	-70.00	8130.00	8105.00
	111.00	18.00	-8.00	-66.00	8130.00	8104.00
	99.00	16.00	-3.00	-57.00	8129.00	8104.00
	76.00	13.00	6.00	-46.00	8129.00	8104.00
	52.00	8.00	12.00	-34.00	8128.00	8103.00
	18.00	1.00	14.00	-12.00	8129.00	8104.00
	-22.00	-8.00	13.00	15.00	8128.00	8104.00
	-58.00	-18.00	6.00	41.00	8128.00	8104.00
	-90.00	-26.00	4.00	61.00	8129.00	8104.00
	-112.00	-35.00	-3.00	70.00	8127.00	8103.00
	-115.00	-31.00	-5.00	72.00	8128.00	8103.00
	-115.00	-32.00	-10.00	73.00	8128.00	8104.00
	-103.00	-29.00	-13.00	63.00	8127.00	8103.00
	-78.00	-18.00	-9.00	44.00	8127.00	8103.00
	-52.00	-12.00	-7.00	26.00	8128.00	8103.00
	-21.00	-4.00	-8.00	4.00	8127.00	8103.00
	19.00	6.00	-3.00	-23.00	8129.00	8103.00
	54.00	15.00	-3.00	-41.00	8128.00	8103.00
	79.00	19.00	-6.00	-55.00	8129.00	8104.00
	103.00	23.00	-4.00	-69.00	8129.00	8104.00
	115.00	24.00	-5.00	-75.00	8128.00	8103.00
	116.00	21.00	-9.00	-70.00	8129.00	8104.00
	103.00	14.00	-11.00	-59.00	8128.00	8103.00
	77.00	6.00	-8.00	-40.00	8128.00	8104.00
	47.00	-1.00	-9.00	-20.00	8130.00	8105.00
	13.00	-7.00	-7.00	2.00	8128.00	8104.00
	-30.00	-19.00	-11.00	32.00	8129.00	8105.00
	-66.00	-25.00	-11.00	51.00	8129.00	8104.00
	-95.00	-30.00	-6.00	70.00	8128.00	8104.00
	-112.00	-30.00	2.00	73.00	8129.00	8104.00
	-110.00	-20.00	14.00	63.00	8129.00	8104.00
	-108.00	-18.00	13.00	62.00	8128.00	8104.00
	-91.00	-9.00	24.00	42.00	8128.00	8104.00
	-60.00	5.00	30.00	17.00	8129.00	8105.00
	-35.00	10.00	26.00	0.00	8129.00	8104.00
	-5.00	16.00	22.00	-16.00	8129.00	8104.00
	22.00	13.00	12.00	-31.00	8129.00	8104.00
	50.00	15.00	2.00	-42.00	8129.00	8103.00
	77.00	17.00	-3.00	-55.00	8129.00	8104.00
	99.00	20.00	-6.00	-66.00	8128.00	8104.00
	110.00	19.00	-9.00	-71.00	8128.00	8103.00
	112.00	19.00	-11.00	-67.00	8129.00	8104.00
	100.00	14.00	-12.00	-56.00	8129.00	8104.00
	75.00	7.00	-11.00	-40.00	8128.00	8103.00
	50.00	4.00	-9.00	-26.00	8129.00	8104.00
	14.00	-4.00	-6.00	-2.00	8128.00	8102.00
	-27.00	-14.00	-9.00	26.00	8128.00	8104.00
	-64.00	-25.00	-13.00	53.00	8128.00	8103.00
	-97.00	-34.00	-15.00	73.00	8128.00	8104.00
	-120.00	-40.00	-17.00	85.00	8129.00	8104.00
	-117.00	-29.00	-5.00	75.00	8129.00	8104.00
	-107.00	-18.00	10.00	58.00	8128.00	8104.00
	-91.00	-11.00	12.00	46.00	8128.00	8104.00
	-69.00	-7.00	9.00	34.00	8128.00	8103.00
	-41.00	4.00	11.00	11.00	8128.00	8104.00
	-11.00	7.00	8.00	-5.00	8129.00	8104.00
	22.00	8.00	3.00	-24.00	8129.00	8104.00
	53.00	14.00	2.00	-41.00	8128.00	8104.00
	80.00	20.00	4.00	-57.00	8129.00	8104.00
	99.00	23.00	1.00	-67.00	8129.00	8104.00
	110.00	23.00	2.00	-71.00	8129.00	8104.00
	112.00	21.00	0.00	-69.00	8130.00	8105.00
	99.00	16.00	-5.00	-58.00	8128.00	8104.00
	74.00	9.00	-4.00	-39.00	8129.00	8104.00
	50.00	8.00	4.00	-26.00	8129.00	8104.00
	13.00	-5.00	1.00	-1.00	8129.00	8104.00
	-26.00	-10.00	0.00	21.00	8128.00	8104.00
	-62.00	-18.00	-3.00	48.00	8127.00	8103.00
	-96.00	-27.00	-5.00	66.00	8128.00	8103.00
	-112.00	-29.00	-4.00	74.00	8128.00	8104.00
	-114.00	-25.00	1.00	72.00	8127.00	8102.00
	-110.00	-23.00	3.00	63.00	8128.00	8103.00
	-95.00	-18.00	1.00	53.00	8127.00	8102.00
	-71.00	-13.00	0.00	40.00	8128.00	8103.00
	-42.00	-5.00	0.00	18.00	8127.00	8103.00
	-9.00	4.00	-3.00	-2.00	8129.00	8104.00
	28.00	10.00	-3.00	-25.00	8129.00	8103.00
	55.00	14.00	-4.00	-42.00	8129.00	8104.00
	82.00	16.00	-7.00	-53.00	8129.00	8104.00
	103.00	18.00	-10.00	-65.00	8129.00	8103.00
	111.00	15.00	-13.00	-67.00	8129.00	8103.00
	116.00	15.00	-16.00	-66.00	8129.00	8103.00
	105.00	11.00	-14.00	-59.00	8129.00	8103.00
	77.00	3.00	-15.00	-37.00	8129.00	8104.00
	38.00	-10.00	-21.00	-10.00	8129.00	8104.00
	14.00	-2.00	1.00	-5.00	8129.00	8103.00
	-22.00	-3.00	12.00	12.00	8128.00	8104.00
	-59.00	-10.00	15.00	35.00	8129.00	8104.00
	-89.00	-16.00	14.00	56.00	8129.00	8105.00
	-115.00	-29.00	1.00	74.00	8129.00	8105.00
	-121.00	-29.00	-2.00	76.00	8129.00	8104.00
	-115.00	-24.00	5.00	66.00	8129.00	8104.00
	-98.00	-19.00	6.00	53.00	8128.00	8103.00
	-70.00	-11.00	7.00	34.00	8128.00	8103.00
	-46.00	-4.00	5.00	16.00	8128.00	8104.00
	-13.00	3.00	2.00	-6.00	8129.00	8104.00
	23.00	11.00	3.00	-31.00	8128.00	8103.00
	53.00	16.00	3.00	-45.00	8129.00	8104.00
	81.00	22.00	0.00	-60.00	8129.00	8104.00
	99.00	20.00	-6.00	-70.00	8129.00	8104.00
	112.00	23.00	1.00	-78.00	8128.00	8103.00
	116.00	25.00	2.00	-79.00	8128.00	8103.00
	105.00	21.00	3.00	-67.00	8128.00	8103.00
	79.00	15.00	6.00	-51.00	8129.00	8103.00
	50.00	8.00	9.00	-31.00	8129.00	8103.00
	13.00	-2.00	7.00	-4.00	8129.00	8104.00
	-34.00	-16.00	-2.00	27.00	8128.00	8104.00
	-68.00	-23.00	-3.00	52.00	8128.00	8103.00
	-105.00	-31.00	-7.00	73.00	8128.00	8103.00
	-117.00	-29.00	-4.00	78.00	8129.00	8104.00
	-117.00	-25.00	-2.00	76.00	8128.00	8104.00
	-110.00	-22.00	0.00	69.00	8128.00	8104.00
	-95.00	-18.00	-3.00	55.00	8127.00	8103.00
	-70.00	-13.00	-2.00	41.00	8128.00	8103.00
	-47.00	-9.00	-4.00	22.00	8128.00	8103.00
	-12.00	2.00	-2.00	-1.00	8128.00	8103.00
	26.00	10.00	0.00	-26.00	8128.00	8103.00
	57.00	16.00	-2.00	-44.00	8129.00	8104.00
	81.00	15.00	-5.00	-56.00	8129.00	8104.00
	103.00	21.00	-6.00	-70.00	8129.00	8104.00
	116.00	24.00	-3.00	-79.00	8128.00	8103.00
	118.00	24.00	1.00	-77.00	8129.00	8104.00
	108.00	22.00	5.00	-71.00	8128.00	8103.00
	80.00	13.00	3.00	-51.00	8129.00	8104.00
	51.00	6.00	-3.00	-25.00	8129.00	8104.00
	16.00	-3.00	-4.00	-1.00	8129.00	8104.00
	-26.00	-10.00	-5.00	25.00	8128.00	8104.00
	-67.00	-24.00	-12.00	52.00	8128.00	8103.00
	-97.00	-30.00	-9.00	70.00	8128.00	8103.00
	-109.00	-26.00	2.00	71.00	8128.00	8104.00
	-113.00	-26.00	4.00	69.00	8129.00	8104.00
	-109.00	-18.00	12.00	61.00	8129.00	8104.00
	-94.00	-12.00	15.00	48.00	8128.00	8104.00
	-69.00	-7.00	10.00	31.00	8128.00	8104.00
	-42.00	-3.00	3.00	16.00	8127.00	8103.00
	-10.00	1.00	-3.00	-3.00	8129.00	8103.00
	28.00	9.00	-2.00	-24.00	8128.00	8104.00
	60.00	16.00	-6.00	-40.00	8128.00	8103.00
	87.00	19.00	-8.00	-57.00	8128.00	8102.00
	108.00	21.00	-11.00	-67.00	8128.00	8103.00
	116.00	19.00	-13.00	-70.00	8128.00	8103.00
	118.00	17.00	-13.00	-66.00	8129.00	8103.00
	103.00	12.00	-13.00	-52.00	8128.00	8103.00
	72.00	4.00	-13.00	-32.00	8129.00	8103.00
	42.00	-3.00	-10.00	-13.00	8129.00	8104.00
	6.00	-9.00	-5.00	8.00	8128.00	8103.00
	-35.00	-16.00	-4.00	32.00	8128.00	8103.00
	-71.00	-23.00	2.00	55.00	8128.00	8103.00
	-101.00	-26.00	6.00	66.00	8128.00	8104.00
	-118.00	-29.00	7.00	75.00	8128.00	8103.00
	-117.00	-27.00	4.00	75.00	8129.00	8104.00
	-111.00	-21.00	6.00	68.00	8129.00	8104.00
	-94.00	-16.00	6.00	55.00	8128.00	8104.00
	-72.00	-11.00	5.00	35.00	8128.00	8103.00
	-44.00	-5.00	3.00	18.00	8128.00	8104.00
	-15.00	-1.00	-3.00	2.00	8128.00	8104.00
	21.00	4.00	-8.00	-21.00	8129.00	8104.00
	54.00	13.00	-3.00	-43.00	8129.00	8104.00
	83.00	20.00	0.00	-61.00	8129.00	8104.00
	104.00	20.00	-5.00	-70.00	8130.00	8104.00
	112.00	18.00	-9.00	-73.00	8128.00	8104.00
	117.00	21.00	-3.00	-76.00	8128.00	8104.00
	108.00	21.00	5.00	-71.00	8129.00	8103.00
	81.00	16.00	6.00	-51.00	8129.00	8104.00
	51.00	7.00	6.00	-30.00	8129.00	8104.00
	14.00	-3.00	7.00	-5.00	8128.00	8104.00
	-26.00	-7.00	9.00	21.00	8128.00	8104.00
	-63.00	-14.00	8.00	42.00	8128.00	8104.00
	-93.00	-22.00	4.00	65.00	8128.00	8104.00
	-113.00	-29.00	-4.00	77.00	8128.00	8104.00
	-120.00	-29.00	-8.00	78.00	8128.00	8104.00
	-117.00	-26.00	-8.00	74.00	8128.00	8103.00
	-99.00	-19.00	-5.00	60.00	8127.00	8103.00
	-71.00	-11.00	0.00	41.00	8128.00	8104.00
	-46.00	-5.00	3.00	20.00	8128.00	8103.00
	-13.00	3.00	2.00	-2.00	8128.00	8103.00
	24.00	12.00	3.00	-27.00	8129.00	8103.00
	52.00	15.00	0.00	-42.00	8129.00	8104.00
	80.00	18.00	-4.00	-60.00	8128.00	8103.00
	103.00	19.00	-6.00	-69.00	8128.00	8103.00
	113.00	20.00	-7.00	-73.00	8129.00	8104.00
	116.00	18.00	-7.00	-72.00	8128.00	8103.00
	104.00	14.00	-5.00	-61.00	8128.00	8103.00
	73.00	6.00	-8.00	-38.00	8129.00	8104.00
	46.00	1.00	-6.00	-22.00	8129.00	8104.00
	16.00	-3.00	3.00	-6.00	8129.00	8104.00
	-25.00	-8.00	8.00	19.00	8128.00	8104.00
	-62.00	-14.00	5.00	43.00	8128.00	8104.00
	-92.00	-22.00	3.00	62.00	8129.00	8104.00
	-113.00	-27.00	-2.00	73.00	8128.00	8103.00
	-121.00	-29.00	-5.00	76.00	8128.00	8103.00
	-118.00	-26.00	-6.00	72.00	8128.00	8104.00
	-104.00	-25.00	-10.00	63.00	8128.00	8103.00
	-78.00	-18.00	-7.00	43.00	8128.00	8104.00
	-44.00	-1.00	8.00	12.00	8128.00	8104.00
	-8.00	9.00	9.00	-12.00	8129.00	8104.00
	28.00	14.00	5.00	-34.00	8129.00	8104.00
	61.00	23.00	8.00	-52.00	8129.00	8104.00
	90.00	27.00	8.00	-70.00	8129.00	8104.00
	107.00	24.00	3.00	-74.00	8130.00	8105.00
	114.00	22.00	0.00	-77.00	8129.00	8103.00
	117.00	22.00	2.00	-77.00	8129.00	8104.00
	102.00	18.00	1.00	-67.00	8129.00	8104.00
	75.00	9.00	-3.00	-46.00	8128.00	8103.00
	46.00	2.00	-3.00	-26.00	8130.00	8105.00
	12.00	-5.00	-3.00	-2.00	8128.00	8103.00
	-30.00	-14.00	-4.00	25.00	8127.00	8103.00
	-65.00	-22.00	-4.00	49.00	8128.00	8103.00
	-94.00	-26.00	0.00	64.00	8128.00	8103.00
	-109.00	-29.00	1.00	74.00	8129.00	8104.00
	-113.00	-27.00	-2.00	72.00	8128.00	8102.00
	-110.00	-24.00	-3.00	68.00	8128.00	8103.00
	-97.00	-20.00	-4.00	57.00	8128.00	8103.00
	-73.00	-13.00	-3.00	37.00	8127.00	8103.00
	-48.00	-7.00	-3.00	21.00	8128.00	8104.00
	-13.00	1.00	-5.00	0.00	8129.00	8104.00
	24.00	8.00	-5.00	-25.00	8129.00	8103.00
	55.00	13.00	-6.00	-43.00	8128.00	8103.00
	79.00	15.00	-11.00	-58.00	8128.00	8103.00
	102.00	19.00	-9.00	-69.00	8128.00	8103.00
	114.00	22.00	-5.00	-76.00	8129.00	8104.00
	114.00	17.00	-10.00	-71.00	8129.00	8104.00
	101.00	11.00	-13.00	-57.00	8129.00	8104.00
	75.00	5.00	-9.00	-41.00	8129.00	8104.00
	48.00	1.00	-4.00	-22.00	8129.00	8104.00
	9.00	-10.00	-5.00	5.00	8128.00	8104.00
	-31.00	-13.00	5.00	24.00	8128.00	8104.00
	-63.00	-16.00	11.00	43.00	8129.00	8104.00
	-90.00	-18.00	15.00	55.00	8129.00	8104.00
	-110.00	-23.00	12.00	66.00	8128.00	8104.00
	-116.00	-25.00	8.00	68.00	8128.00	8104.00
	-110.00	-21.00	6.00	63.00	8129.00	8104.00
	-98.00	-21.00	1.00	57.00	8128.00	8104.00
	-72.00	-15.00	-2.00	39.00	8128.00	8103.00
	-46.00	-9.00	-4.00	22.00	8127.00	8103.00
	-12.00	0.00	-4.00	0.00	8128.00	8104.00
	27.00	8.00	-3.00	-25.00	8129.00	8104.00
	56.00	12.00	-6.00	-43.00	8128.00	8103.00
	82.00	17.00	-8.00	-55.00	8129.00	8104.00
	108.00	26.00	-3.00	-74.00	8129.00	8103.00
	119.00	27.00	2.00	-79.00	8128.00	8103.00
	121.00	26.00	3.00	-80.00	8128.00	8103.00
	110.00	22.00	5.00	-69.00	8129.00	8104.00
	82.00	16.00	6.00	-51.00	8129.00	8104.00
	54.00	9.00	5.00	-33.00	8129.00	8103.00
	17.00	-3.00	4.00	-5.00	8129.00	8103.00
	-28.00	-13.00	-3.00	25.00	8128.00	8103.00
	-65.00	-22.00	-5.00	53.00	8128.00	8104.00
	-98.00	-31.00	-8.00	72.00	8128.00	8103.00
	-118.00	-33.00	-7.00	81.00	8128.00	8103.00
	-122.00	-30.00	-2.00	80.00	8129.00	8104.00
	-120.00	-30.00	-2.00	76.00	8129.00	8104.00
	-103.00	-21.00	0.00	63.00	8129.00	8104.00
	-76.00	-11.00	4.00	37.00	8129.00	8104.00
	-48.00	-1.00	9.00	16.00	8128.00	8103.00
	-16.00	3.00	5.00	-3.00	8129.00	8104.00
	16.00	6.00	-2.00	-19.00	8130.00	8104.00
	47.00	13.00	-3.00	-40.00	8130.00	8104.00
	78.00	19.00	-3.00	-59.00	8129.00	8104.00
	101.00	23.00	-5.00	-70.00	8129.00	8104.00
	113.00	23.00	-7.00	-74.00	8129.00	8104.00
	114.00	23.00	-6.00	-73.00	8129.00	8104.00
	106.00	21.00	1.00	-68.00	8129.00	8104.00
	81.00	17.00	4.00	-51.00	8128.00	8104.00
	52.00	8.00	5.00	-30.00	8129.00	8103.00
	15.00	-2.00	4.00	-4.00	8128.00	8103.00
	-26.00	-10.00	2.00	23.00	8127.00	8103.00
	-61.00	-17.00	3.00	45.00	8128.00	8103.00
	-90.00	-21.00	4.00	61.00	8127.00	8103.00
	-107.00	-24.00	3.00	68.00	8128.00	8103.00
	-111.00	-23.00	1.00	70.00	8128.00	8103.00
	-108.00	-22.00	-4.00	66.00	8127.00	8102.00
	-95.00	-20.00	-7.00	58.00	8127.00	8102.00
	-68.00	-11.00	-5.00	40.00	8128.00	8103.00
	-44.00	-7.00	-7.00	24.00	8129.00	8104.00
	-15.00	-2.00	-9.00	3.00	8128.00	8104.00
	17.00	3.00	-13.00	-17.00	8128.00	8104.00
	46.00	7.00	-12.00	-32.00	8128.00	8103.00
	73.00	12.00	-7.00	-50.00	8129.00	8104.00
	100.00	21.00	1.00	-66.00	8129.00	8103.00
	112.00	21.00	3.00	-74.00	8128.00	8103.00
	118.00	22.00	3.00	-75.00	8128.00	8104.00
	106.00	18.00	4.00	-67.00	8128.00	8103.00
	82.00	15.00	10.00	-49.00	8129.00	8104.00
	51.00	5.00	6.00	-29.00	8129.00	8104.00
	13.00	-3.00	6.00	-2.00	8130.00	8104.00
	-28.00	-11.00	5.00	23.00	8128.00	8104.00
	-65.00	-18.00	4.00	44.00	8128.00	8104.00
	-93.00	-24.00	4.00	59.00	8128.00	8103.00
	-108.00	-24.00	4.00	68.00	8128.00	8104.00
	-109.00	-23.00	2.00	68.00	8128.00	8104.00
	-106.00	-20.00	0.00	65.00	8129.00	8104.00
	-94.00	-17.00	-4.00	52.00	8129.00	8104.00
	-69.00	-10.00	-3.00	32.00	8129.00	8104.00
	-43.00	-4.00	-4.00	16.00	8128.00	8104.00
	-11.00	1.00	-4.00	-4.00	8129.00	8104.00
	22.00	5.00	-7.00	-24.00	8129.00	8103.00
	51.00	11.00	-7.00	-41.00	8129.00	8104.00
	79.00	17.00	-6.00	-57.00	8128.00	8104.00
	99.00	18.00	-6.00	-65.00	8128.00	8103.00
	111.00	19.00	-5.00	-72.00	8128.00	8104.00
	111.00	17.00	-5.00	-70.00	8128.00	8103.00
	96.00	9.00	-8.00	-55.00	8129.00	8104.00
	68.00	2.00	-8.00	-37.00	8128.00	8103.00
	40.00	-3.00	-6.00	-20.00	8128.00	8103.00
	5.00	-12.00	-5.00	8.00	8128.00	8104.00
	-36.00	-17.00	0.00	31.00	8128.00	8104.00
	-62.00	-15.00	11.00	41.00	8128.00	8104.00
	-90.00	-19.00	14.00	57.00	8128.00	8104.00
	-110.00	-22.00	11.00	67.00	8128.00	8104.00
	-108.00	-18.00	12.00	61.00	8128.00	8104.00
	-104.00	-15.00	9.00	58.00	8128.00	8103.00
	-93.00	-15.00	5.00	49.00	8129.00	8104.00
	-67.00	-8.00	2.00	34.00	8128.00	8103.00
	-39.00	0.00	3.00	12.00	8129.00	8104.00
	-6.00	6.00	1.00	-5.00	8129.00	8104.00
	27.00	10.00	-3.00	-26.00	8129.00	8104.00
	56.00	14.00	-6.00	-41.00	8129.00	8105.00
	81.00	17.00	-9.00	-53.00	8129.00	8104.00
	101.00	19.00	-9.00	-62.00	8129.00	8104.00
	109.00	16.00	-11.00	-64.00	8129.00	8104.00
	110.00	13.00	-11.00	-64.00	8129.00	8104.00
	95.00	10.00	-9.00	-53.00	8129.00	8104.00
	70.00	5.00	-9.00	-36.00	8129.00	8104.00
	42.00	1.00	-5.00	-19.00	8129.00	8104.00
	9.00	-2.00	2.00	-1.00	8129.00	8104.00
	-27.00	-6.00	5.00	20.00	8128.00	8104.00
	-62.00	-16.00	3.00	44.00	8128.00	8104.00
	-90.00	-21.00	4.00	62.00	8128.00	8104.00
	-107.00	-25.00	3.00	71.00	8128.00	8104.00
	-109.00	-23.00	3.00	68.00	8129.00	8104.00
	-109.00	-23.00	2.00	66.00	8128.00	8103.00
	-96.00	-19.00	0.00	56.00	8128.00	8104.00
	-70.00	-13.00	-2.00	38.00	8127.00	8104.00
	-42.00	-6.00	-2.00	19.00	8128.00	8104.00
	-10.00	2.00	-5.00	-2.00	8128.00	8103.00
	25.00	6.00	-7.00	-23.00	8128.00	8103.00
	53.00	11.00	-10.00	-37.00	8129.00	8103.00
	82.00	17.00	-8.00	-57.00	8128.00	8103.00
	106.00	21.00	-5.00	-67.00	8129.00	8104.00
	114.00	22.00	-5.00	-74.00	8128.00	8103.00
	117.00	20.00	-6.00	-72.00	8128.00	8103.00
	103.00	17.00	-4.00	-61.00	8129.00	8104.00
	78.00	11.00	0.00	-44.00	8128.00	8103.00
	44.00	1.00	2.00	-23.00	8129.00	8104.00
	12.00	-5.00	3.00	0.00	8129.00	8103.00
	-29.00	-12.00	4.00	25.00	8128.00	8104.00
	-65.00	-20.00	1.00	48.00	8129.00	8104.00
	-97.00	-27.00	0.00	66.00	8128.00	8104.00
	-111.00	-26.00	4.00	68.00	8128.00	8104.00
	-111.00	-25.00	4.00	66.00	8128.00	8104.00
	-107.00	-21.00	3.00	63.00	8128.00	8103.00
	-96.00	-17.00	4.00	51.00	8129.00	8104.00
	-72.00	-11.00	4.00	34.00	8128.00	8104.00
	-45.00	-2.00	6.00	15.00	8128.00	8104.00
	-13.00	3.00	1.00	-4.00	8129.00	8104.00
	21.00	6.00	-4.00	-24.00	8129.00	8104.00
	52.00	11.00	-2.00	-43.00	8128.00	8103.00
	78.00	16.00	-2.00	-59.00	8128.00	8103.00
	101.00	20.00	-4.00	-71.00	8128.00	8104.00
	115.00	24.00	-4.00	-76.00	8129.00	8104.00
	116.00	22.00	-5.00	-75.00	8129.00	8104.00
	104.00	18.00	-5.00	-65.00	8128.00	8104.00
	75.00	10.00	-6.00	-43.00	8129.00	8104.00
	43.00	1.00	-6.00	-22.00	8128.00	8103.00
	7.00	-8.00	-5.00	5.00	8128.00	8103.00
	-30.00	-12.00	2.00	26.00	8127.00	8103.00
	-63.00	-17.00	7.00	45.00	8129.00	8103.00
	-93.00	-23.00	5.00	62.00	8128.00	8103.00
	-110.00	-23.00	5.00	70.00	8128.00	8103.00
	-113.00	-24.00	3.00	71.00	8128.00	8103.00
	-110.00	-22.00	2.00	68.00	8128.00	8103.00
	-94.00	-17.00	1.00	56.00	8128.00	8103.00
	-68.00	-10.00	2.00	37.00	8128.00	8103.00
	-43.00	-6.00	1.00	22.00	8128.00	8103.00
	-11.00	3.00	1.00	-1.00	8129.00	8104.00
	21.00	7.00	-2.00	-21.00	8129.00	8104.00
	50.00	12.00	-6.00	-39.00	8129.00	8104.00
	77.00	17.00	-6.00	-55.00	8129.00	8103.00
	96.00	18.00	-7.00	-63.00	8128.00	8103.00
	108.00	21.00	-3.00	-73.00	8129.00	8104.00
	115.00	23.00	0.00	-73.00	8129.00	8103.00
	101.00	17.00	-3.00	-61.00	8129.00	8104.00
	76.00	12.00	0.00	-46.00	8130.00	8105.00
	51.00	6.00	1.00	-29.00	8129.00	8104.00
	18.00	0.00	4.00	-8.00	8128.00	8103.00
	-23.00	-9.00	5.00	20.00	8129.00	8104.00
	-60.00	-16.00	3.00	44.00	8130.00	8105.00
	-92.00	-24.00	1.00	60.00	8128.00	8104.00
	-110.00	-27.00	-2.00	67.00	8128.00	8104.00
	-112.00	-27.00	-4.00	68.00	8128.00	8104.00
	-111.00	-27.00	-4.00	65.00	8128.00	8103.00
	-97.00	-21.00	-5.00	55.00	8128.00	8103.00
	-73.00	-17.00	-8.00	40.00	8128.00	8104.00
	-47.00	-10.00	-8.00	22.00	8128.00	8104.00
	-16.00	-3.00	-7.00	0.00	8129.00	8103.00
	21.00	3.00	-7.00	-18.00	8128.00	8104.00
	48.00	7.00	-8.00	-37.00	8129.00	8104.00
	75.00	16.00	-3.00	-55.00	8129.00	8104.00
	102.00	25.00	4.00	-73.00	8128.00	8103.00
	112.00	26.00	4.00	-78.00	8129.00	8104.00
	116.00	27.00	6.00	-77.00	8128.00	8103.00
	102.00	22.00	3.00	-68.00	8128.00	8103.00
	75.00	14.00	3.00	-46.00	8128.00	8103.00
	49.00	6.00	1.00	-26.00	8128.00	8103.00
	16.00	-2.00	3.00	-3.00	8129.00	8103.00
	-25.00	-9.00	1.00	23.00	8128.00	8103.00
	-59.00	-15.00	3.00	47.00	8129.00	8105.00
	-90.00	-23.00	-2.00	65.00	8128.00	8103.00
	-106.00	-24.00	1.00	71.00	8128.00	8103.00
	-112.00	-26.00	-3.00	75.00	8128.00	8103.00
	-112.00	-27.00	-5.00	75.00	8128.00	8104.00
	-95.00	-19.00	0.00	63.00	8129.00	8104.00
	-69.00	-13.00	0.00	42.00	8128.00	8104.00
	-45.00	-6.00	1.00	23.00	8127.00	8103.00
	-13.00	1.00	-4.00	3.00	8128.00	8104.00
	21.00	7.00	-6.00	-19.00	8129.00	8103.00
	51.00	14.00	-3.00	-38.00	8129.00	8103.00
	76.00	16.00	-5.00	-53.00	8129.00	8104.00
	99.00	19.00	-6.00	-66.00	8129.00	8103.00
	109.00	18.00	-8.00	-70.00	8129.00	8104.00
	113.00	18.00	-4.00	-71.00	8128.00	8103.00
	105.00	20.00	3.00	-68.00	8128.00	8103.00
	79.00	13.00	5.00	-49.00	8129.00	8103.00
	52.00	6.00	6.00	-29.00	8130.00	8104.00
	16.00	-4.00	4.00	-4.00	8129.00	8103.00
	-24.00	-11.00	5.00	20.00	8128.00	8104.00
	-61.00	-20.00	5.00	43.00	8129.00	8103.00
	-92.00	-26.00	3.00	63.00	8129.00	8105.00
	-108.00	-27.00	4.00	70.00	8128.00	8104.00
	-112.00	-27.00	3.00	70.00	8129.00	8104.00
	-106.00	-23.00	1.00	66.00	8128.00	8104.00
	-91.00	-17.00	1.00	53.00	8129.00	8104.00
	-67.00	-10.00	1.00	37.00	8128.00	8104.00
	-41.00	-3.00	-2.00	17.00	8128.00	8103.00
	-10.00	3.00	-4.00	-3.00	8129.00	8104.00
	25.00	9.00	-5.00	-24.00	8129.00	8104.00
	50.00	13.00	-9.00	-39.00	8129.00	8104.00
	74.00	16.00	-9.00	-53.00	8129.00	8104.00
	97.00	20.00	-8.00	-63.00	8129.00	8104.00
	108.00	19.00	-6.00	-71.00	8128.00	8103.00
	109.00	18.00	-5.00	-68.00	8128.00	8103.00
	98.00	15.00	-4.00	-57.00	8129.00	8104.00
	71.00	8.00	-2.00	-39.00	8128.00	8104.00
	44.00	2.00	0.00	-23.00	8128.00	8103.00
	11.00	-4.00	4.00	-3.00	8128.00	8102.00
	-26.00	-9.00	7.00	20.00	8127.00	8103.00
	-60.00	-17.00	5.00	43.00	8128.00	8103.00
	-90.00	-23.00	4.00	59.00	8128.00	8103.00
	-106.00	-23.00	4.00	68.00	8128.00	8103.00
	-109.00	-23.00	2.00	70.00	8128.00	8103.00
	-108.00	-23.00	0.00	67.00	8127.00	8103.00
	-95.00	-19.00	0.00	57.00	8128.00	8103.00
	-70.00	-13.00	-2.00	40.00	8127.00	8103.00
	-44.00	-7.00	0.00	21.00	8128.00	8103.00
	-13.00	0.00	-2.00	2.00	8128.00	8103.00
	21.00	6.00	-4.00	-20.00	8128.00	8103.00
	49.00	11.00	-3.00	-37.00	8128.00	8104.00
	76.00	16.00	-3.00	-54.00	8128.00	8103.00
	96.00	20.00	-4.00	-67.00	8128.00	8103.00
	108.00	23.00	-2.00	-71.00	8129.00	8104.00
	111.00	22.00	-2.00	-72.00	8129.00	8104.00
	99.00	18.00	0.00	-62.00	8129.00	8104.00
	77.00	14.00	1.00	-46.00	8129.00	8104.00
	52.00	9.00	0.00	-30.00	8129.00	8104.00
	17.00	0.00	2.00	-8.00	8129.00	8104.00
	-22.00	-9.00	0.00	18.00	8128.00	8104.00
	-58.00	-18.00	-2.00	42.00	8128.00	8104.00
	-90.00	-25.00	-3.00	62.00	8128.00	8104.00
	-109.00	-27.00	-2.00	70.00	8129.00	8105.00
	-113.00	-25.00	-2.00	69.00	8128.00	8103.00
	-109.00	-23.00	-2.00	67.00	8128.00	8104.00
	-99.00	-22.00	-4.00	59.00	8128.00	8104.00
	-74.00	-16.00	-4.00	42.00	8128.00	8104.00
	-48.00	-8.00	-2.00	21.00	8129.00	8104.00
	-16.00	1.00	-2.00	-1.00	8129.00	8104.00
	20.00	9.00	0.00	-25.00	8129.00	8104.00
	51.00	13.00	1.00	-42.00	8128.00	8104.00
	80.00	18.00	2.00	-58.00	8128.00	8103.00
	101.00	20.00	-2.00	-73.00	8128.00	8103.00
	111.00	22.00	0.00	-74.00	8128.00	8104.00
	111.00	18.00	-4.00	-72.00	8127.00	8102.00
	97.00	13.00	-4.00	-62.00	8128.00	8103.00
	72.00	9.00	-3.00	-43.00	8129.00	8104.00
	44.00	2.00	-2.00	-24.00	8128.00	8103.00
	9.00	-8.00	1.00	1.00	8128.00	8103.00
	-32.00	-15.00	-2.00	28.00	8128.00	8103.00
	-67.00	-22.00	0.00	47.00	8128.00	8103.00
	-95.00	-24.00	2.00	63.00	8128.00	8104.00
	-110.00	-24.00	5.00	68.00	8128.00	8103.00
	-109.00	-25.00	3.00	66.00	8128.00	8103.00
	-105.00	-23.00	3.00	62.00	8128.00	8103.00
	-88.00	-20.00	1.00	54.00	8128.00	8104.00
	-63.00	-11.00	1.00	36.00	8128.00	8104.00
	-40.00	-5.00	-3.00	17.00	8129.00	8104.00
	-9.00	5.00	-5.00	-4.00	8129.00	8104.00
	27.00	11.00	-4.00	-27.00	8129.00	8104.00
	56.00	17.00	-7.00	-45.00	8129.00	8104.00
	82.00	23.00	-8.00	-60.00	8129.00	8104.00
	104.00	30.00	-8.00	-71.00	8129.00	8104.00
	115.00	33.00	-8.00	-77.00	8129.00	8104.00
	117.00	32.00	-7.00	-76.00	8129.00	8104.00
	105.00	28.00	-5.00	-66.00	8129.00	8104.00
	80.00	20.00	-4.00	-48.00	8129.00	8104.00
	51.00	11.00	-6.00	-29.00	8128.00	8103.00
	14.00	0.00	-5.00	-3.00	8129.00	8103.00
	-29.00	-14.00	-4.00	23.00	8128.00	8103.00
	-63.00	-25.00	0.00	50.00	8129.00	8104.00
	-96.00	-39.00	0.00	70.00	8128.00	8104.00
	-116.00	-45.00	2.00	83.00	8129.00	8104.00
	-121.00	-45.00	4.00	84.00	8128.00	8104.00
	-119.00	-39.00	6.00	77.00	8129.00	8104.00
	-101.00	-29.00	8.00	58.00	8127.00	8103.00
	-70.00	-14.00	14.00	37.00	8127.00	8103.00
	-42.00	-4.00	17.00	14.00	8128.00	8103.00
	-10.00	6.00	11.00	-10.00	8128.00	8102.00
	19.00	12.00	6.00	-30.00	8128.00	8103.00
	52.00	20.00	3.00	-49.00	8129.00	8103.00
	77.00	23.00	-2.00	-62.00	8128.00	8104.00
	99.00	24.00	-4.00	-73.00	8128.00	8103.00
	110.00	25.00	-4.00	-78.00	8128.00	8103.00
	113.00	27.00	-4.00	-79.00	8128.00	8103.00
	103.00	23.00	-4.00	-67.00	8129.00	8104.00
	75.00	13.00	-5.00	-48.00	8129.00	8104.00
	47.00	3.00	-6.00	-28.00	8128.00	8103.00
	14.00	-9.00	-4.00	-2.00	8129.00	8104.00
	-26.00	-17.00	-3.00	24.00	8129.00	8104.00
	-59.00	-24.00	0.00	49.00	8129.00	8104.00
	-90.00	-31.00	0.00	68.00	8129.00	8104.00
	-108.00	-34.00	1.00	77.00	8129.00	8104.00
	-112.00	-32.00	3.00	77.00	8129.00	8104.00
	-109.00	-30.00	1.00	74.00	8128.00	8104.00
	-94.00	-24.00	0.00	63.00	8128.00	8104.00
	-69.00	-16.00	-3.00	46.00	8128.00	8104.00
	-47.00	-6.00	-4.00	26.00	8128.00	8104.00
	-19.00	0.00	-6.00	6.00	8128.00	8104.00
	13.00	3.00	-11.00	-17.00	8129.00	8103.00
	45.00	11.00	-7.00	-35.00	8129.00	8104.00
	76.00	19.00	-4.00	-56.00	8129.00	8104.00
	98.00	25.00	-4.00	-69.00	8128.00	8103.00
	112.00	27.00	-4.00	-73.00	8129.00	8104.00
	113.00	27.00	-4.00	-73.00	8129.00	8103.00
	103.00	24.00	-4.00	-64.00	8129.00	8104.00
	86.00	18.00	-2.00	-48.00	8127.00	8103.00
	51.00	11.00	1.00	-31.00	8130.00	8105.00
	8.00	1.00	2.00	-8.00	8128.00	8104.00
	-34.00	-9.00	2.00	16.00	8127.00	8103.00
	-65.00	-15.00	4.00	36.00	8128.00	8103.00
	-90.00	-23.00	3.00	52.00	8127.00	8102.00
	-104.00	-26.00	2.00	63.00	8128.00	8104.00
	-104.00	-25.00	2.00	61.00	8128.00	8104.00
	-100.00	-22.00	2.00	57.00	8128.00	8104.00
	-88.00	-18.00	3.00	45.00	8128.00	8103.00
	-67.00	-15.00	1.00	31.00	8129.00	8104.00
	-42.00	-13.00	1.00	17.00	8128.00	8103.00
	-14.00	-6.00	0.00	-3.00	8129.00	8103.00
	22.00	1.00	0.00	-19.00	8129.00	8104.00
	53.00	10.00	-2.00	-36.00	8129.00	8103.00
	76.00	16.00	0.00	-49.00	8128.00	8103.00
	99.00	20.00	2.00	-56.00	8129.00	8104.00
	111.00	19.00	0.00	-61.00	8129.00	8103.00
	112.00	19.00	-2.00	-61.00	8128.00	8103.00
	103.00	21.00	-3.00	-56.00	8129.00	8103.00
	80.00	16.00	-5.00	-40.00	8129.00	8103.00
	52.00	9.00	-7.00	-22.00	8129.00	8103.00
	17.00	3.00	-6.00	1.00	8129.00	8104.00
	-23.00	-3.00	-5.00	24.00	8129.00	8104.00
	-63.00	-16.00	-9.00	46.00	8128.00	8103.00
	-97.00	-24.00	-8.00	59.00	8128.00	8103.00
	-115.00	-27.00	-7.00	65.00	8128.00	8104.00
	-116.00	-26.00	-6.00	64.00	8128.00	8104.00
	-111.00	-26.00	-5.00	57.00	8129.00	8104.00
	-97.00	-24.00	0.00	50.00	8129.00	8104.00
	-71.00	-18.00	2.00	37.00	8128.00	8103.00
	-48.00	-12.00	7.00	23.00	8128.00	8104.00
	-20.00	-3.00	11.00	3.00	8128.00	8104.00
	15.00	6.00	10.00	-16.00	8128.00	8103.00
	44.00	13.00	10.00	-33.00	8129.00	8104.00
	80.00	13.00	7.00	-45.00	8128.00	8104.00
	121.00	17.00	3.00	-55.00	8128.00	8103.00
	136.00	19.00	1.00	-57.00	8128.00	8103.00
	134.00	23.00	-4.00	-59.00	8129.00	8104.00
	106.00	14.00	-3.00	-56.00	8128.00	8103.00
	72.00	5.00	0.00	-40.00	8128.00	8103.00
	40.00	-3.00	0.00	-24.00	8128.00	8103.00
	4.00	-16.00	-4.00	-3.00	8129.00	8102.00
	-36.00	-31.00	-5.00	20.00	8129.00	8104.00
	-68.00	-41.00	-7.00	36.00	8128.00	8103.00
	-94.00	-44.00	-7.00	52.00	8127.00	8103.00
	-108.00	-39.00	-7.00	59.00	8128.00	8103.00
	-108.00	-25.00	-10.00	59.00	8128.00	8103.00
	-106.00	-11.00	-8.00	54.00	8128.00	8103.00
	-88.00	2.00	-3.00	45.00	8128.00	8104.00
	-74.00	18.00	3.00	29.00	8128.00	8104.00
	-50.00	34.00	8.00	15.00	8128.00	8104.00
	-24.00	45.00	9.00	-1.00	8130.00	8104.00
	5.00	47.00	8.00	-24.00	8129.00	8104.00
	39.00	54.00	6.00	-43.00	8129.00	8104.00
	71.00	54.00	2.00	-52.00	8128.00	8104.00
	99.00	41.00	-6.00	-63.00	8128.00	8104.00
	112.00	31.00	-8.00	-67.00	8128.00	8103.00
	118.00	21.00	-9.00	-62.00	8129.00	8104.00
	109.00	8.00	-7.00	-51.00	8129.00	8104.00
	82.00	-5.00	-4.00	-31.00	8129.00	8104.00
	47.00	-24.00	-3.00	-15.00	8129.00	8104.00
	14.00	-35.00	-2.00	4.00	8128.00	8103.00
	-22.00	-40.00	1.00	23.00	8129.00	8105.00
	-64.00	-44.00	2.00	42.00	8128.00	8104.00
	-96.00	-44.00	1.00	55.00	8128.00	8104.00
	-107.00	-30.00	0.00	61.00	8127.00	8103.00
	-104.00	-17.00	-3.00	60.00	8128.00	8104.00
	-97.00	-8.00	-4.00	56.00	8128.00	8104.00
	-86.00	0.00	-4.00	50.00	8129.00	8104.00
	-66.00	2.00	-4.00	37.00	8127.00	8103.00
	-38.00	2.00	0.00	22.00	8129.00	8104.00
	-8.00	3.00	3.00	8.00	8128.00	8104.00
	24.00	3.00	2.00	-8.00	8129.00	8104.00
	48.00	3.00	3.00	-29.00	8128.00	8103.00
	66.00	1.00	4.00	-47.00	8129.00	8104.00
	86.00	1.00	0.00	-59.00	8129.00	8104.00
	97.00	4.00	-3.00	-66.00	8128.00	8103.00
	94.00	12.00	4.00	-71.00	8128.00	8104.00
	80.00	14.00	10.00	-65.00	8128.00	8103.00
	62.00	9.00	10.00	-42.00	8128.00	8103.00
	38.00	5.00	6.00	-22.00	8129.00	8103.00
	14.00	-3.00	2.00	2.00	8128.00	8102.00
	-12.00	-5.00	0.00	20.00	8128.00	8104.00
	-37.00	-8.00	-3.00	35.00	8128.00	8103.00
	-63.00	-12.00	-4.00	46.00	8128.00	8103.00
	-96.00	-19.00	-6.00	54.00	8128.00	8104.00
	-107.00	-19.00	-6.00	55.00	8128.00	8103.00
	-111.00	-23.00	-6.00	52.00	8128.00	8104.00
	-102.00	-26.00	-5.00	43.00	8128.00	8104.00
	-98.00	-25.00	-8.00	36.00	8128.00	8104.00
	-64.00	-18.00	-7.00	21.00	8128.00	8104.00
	-19.00	-12.00	-4.00	8.00	8129.00	8104.00
	28.00	-7.00	-5.00	-6.00	8128.00	8103.00
	67.00	2.00	-7.00	-20.00	8129.00	8104.00
	95.00	11.00	-6.00	-32.00	8129.00	8104.00
	114.00	20.00	0.00	-43.00	8129.00	8104.00
	126.00	20.00	2.00	-48.00	8129.00	8104.00
	137.00	16.00	2.00	-54.00	8129.00	8104.00
	117.00	4.00	1.00	-47.00	8129.00	8104.00
	79.00	-5.00	0.00	-35.00	8130.00	8105.00
	33.00	-14.00	-2.00	-23.00	8129.00	8103.00
	-10.00	-22.00	1.00	-2.00	8130.00	8105.00
	-45.00	-24.00	1.00	22.00	8129.00	8105.00
	-66.00	-29.00	-2.00	45.00	8129.00	8105.00
	-78.00	-33.00	0.00	64.00	8129.00	8104.00
	-84.00	-36.00	-3.00	70.00	8129.00	8104.00
	-84.00	-32.00	-5.00	68.00	8128.00	8104.00
	-85.00	-23.00	-3.00	59.00	8128.00	8103.00
	-79.00	-15.00	-2.00	42.00	8127.00	8103.00
	-52.00	1.00	1.00	25.00	8128.00	8103.00
	-25.00	22.00	-2.00	4.00	8128.00	8104.00
	7.00	45.00	1.00	-21.00	8129.00	8104.00
	33.00	58.00	1.00	-41.00	8129.00	8104.00
	43.00	64.00	-5.00	-58.00	8128.00	8103.00
	53.00	65.00	-4.00	-74.00	8129.00	8104.00
	66.00	66.00	-7.00	-88.00	8128.00	8104.00
	74.00	67.00	-10.00	-99.00	8129.00	8104.00
	79.00	55.00	-12.00	-98.00	8129.00	8104.00
	68.00	27.00	-15.00	-79.00	8128.00	8103.00
	47.00	5.00	-12.00	-52.00	8128.00	8104.00
	28.00	-11.00	-12.00	-28.00	8128.00	8103.00
	-4.00	-29.00	-6.00	-3.00	8129.00	8103.00
	-42.00	-55.00	4.00	30.00	8128.00	8103.00
	-73.00	-75.00	16.00	65.00	8128.00	8103.00
	-106.00	-87.00	25.00	92.00	8128.00	8104.00
	-129.00	-79.00	30.00	99.00	8128.00	8103.00
	-134.00	-56.00	25.00	82.00	8129.00	8104.00
	-129.00	-27.00	17.00	68.00	8129.00	8104.00
	-96.00	-3.00	14.00	51.00	8128.00	8103.00
	-66.00	11.00	12.00	37.00	8128.00	8103.00
	-32.00	18.00	8.00	19.00	8129.00	8104.00
	5.00	15.00	1.00	3.00	8128.00	8104.00
	45.00	10.00	-7.00	-18.00	8129.00	8104.00
	81.00	10.00	-16.00	-44.00	8128.00	8103.00
	104.00	16.00	-19.00	-63.00	8129.00	8104.00
	124.00	20.00	-18.00	-76.00	8129.00	8104.00
	128.00	25.00	-15.00	-79.00	8129.00	8103.00
	120.00	27.00	-11.00	-74.00	8129.00	8104.00
	106.00	20.00	-4.00	-58.00	8129.00	8103.00
	79.00	11.00	5.00	-33.00	8129.00	8104.00
	52.00	0.00	11.00	-8.00	8129.00	8103.00
	17.00	-16.00	21.00	25.00	8128.00	8104.00
	-26.00	-29.00	27.00	51.00	8128.00	8104.00
	-58.00	-30.00	23.00	68.00	8128.00	8104.00
	-87.00	-34.00	14.00	78.00	8128.00	8103.00
	-102.00	-31.00	7.00	80.00	8128.00	8104.00
	-106.00	-15.00	-3.00	65.00	8128.00	8103.00
	-96.00	-4.00	-8.00	46.00	8127.00	8103.00
	-83.00	6.00	-13.00	34.00	8128.00	8104.00
	-85.00	10.00	-18.00	18.00	8128.00	8104.00
	-75.00	19.00	-24.00	3.00	8128.00	8104.00
	-28.00	28.00	-29.00	-16.00	8127.00	8103.00
	24.00	30.00	-29.00	-34.00	8128.00	8103.00
	61.00	25.00	-27.00	-46.00	8128.00	8103.00
	92.00	21.00	-23.00	-59.00	8128.00	8102.00
	120.00	21.00	-7.00	-66.00	8129.00	8103.00
	127.00	17.00	10.00	-76.00	8129.00	8104.00
	117.00	13.00	-8.00	-76.00	8129.00	8104.00
	104.00	10.00	-11.00	-69.00	8128.00	8103.00
	79.00	5.00	-14.00	-51.00	8129.00	8103.00
	30.00	-9.00	-8.00	-30.00	8128.00	8102.00
	-16.00	-21.00	-4.00	-2.00	8128.00	8103.00
	-46.00	-31.00	-9.00	20.00	8128.00	8103.00
	-59.00	-46.00	-12.00	43.00	8128.00	8103.00
	-80.00	-56.00	-6.00	67.00	8129.00	8104.00
	-95.00	-58.00	4.00	73.00	8128.00	8104.00
	-99.00	-53.00	7.00	67.00	8128.00	8104.00
	-94.00	-42.00	2.00	66.00	8128.00	8104.00
	-80.00	-31.00	-7.00	58.00	8129.00	8104.00
	-58.00	-18.00	-7.00	46.00	8128.00	8104.00
	-39.00	-7.00	-9.00	30.00	8128.00	8104.00
	-16.00	9.00	-11.00	9.00	8128.00	8104.00
	15.00	21.00	3.00	-10.00	8129.00	8104.00
	44.00	23.00	25.00	-21.00	8129.00	8104.00
	65.00	24.00	42.00	-30.00	8130.00	8105.00
	81.00	29.00	44.00	-48.00	8128.00	8103.00
	97.00	23.00	39.00	-57.00	8129.00	8104.00
	95.00	18.00	27.00	-70.00	8129.00	8104.00
	70.00	12.00	16.00	-69.00	8129.00	8104.00
	34.00	7.00	15.00	-56.00	8129.00	8104.00
	17.00	3.00	14.00	-35.00	8129.00	8104.00
	-2.00	7.00	14.00	-12.00	8129.00	8104.00
	-22.00	4.00	8.00	5.00	8128.00	8104.00
	-43.00	-1.00	6.00	23.00	8127.00	8103.00
	-73.00	-11.00	3.00	38.00	8127.00	8103.00
	-93.00	-10.00	-3.00	51.00	8127.00	8103.00
	-95.00	-8.00	-8.00	54.00	8128.00	8103.00
	-88.00	-4.00	-9.00	58.00	8128.00	8103.00
	-74.00	-4.00	-18.00	58.00	8128.00	8104.00
	-54.00	0.00	-29.00	47.00	8129.00	8104.00
	-36.00	3.00	-34.00	23.00	8127.00	8103.00
	-18.00	5.00	-35.00	-6.00	8128.00	8103.00
	11.00	5.00	-32.00	-32.00	8129.00	8104.00
	31.00	-1.00	-29.00	-42.00	8129.00	8103.00
	49.00	-2.00	-26.00	-51.00	8128.00	8103.00
	66.00	4.00	-19.00	-61.00	8129.00	8104.00
	68.00	13.00	-2.00	-66.00	8129.00	8104.00
	72.00	17.00	12.00	-67.00	8129.00	8104.00
	38.00	17.00	20.00	-60.00	8130.00	8104.00
	17.00	14.00	27.00	-42.00	8129.00	8104.00
	18.00	11.00	24.00	-23.00	8129.00	8104.00
	51.00	5.00	14.00	2.00	8128.00	8103.00
	54.00	-7.00	9.00	25.00	8129.00	8104.00
	1.00	-29.00	14.00	43.00	8128.00	8104.00
	-56.00	-54.00	10.00	58.00	8129.00	8105.00
	-74.00	-52.00	-11.00	56.00	8128.00	8103.00
	-63.00	-44.00	-19.00	50.00	8128.00	8104.00
	-58.00	-30.00	-24.00	43.00	8129.00	8104.00
	-54.00	-11.00	-26.00	34.00	8129.00	8104.00
	-42.00	4.00	-23.00	17.00	8127.00	8103.00
	-29.00	26.00	-17.00	2.00	8127.00	8103.00
	-11.00	43.00	-16.00	-15.00	8128.00	8103.00
	4.00	54.00	-12.00	-31.00	8128.00	8103.00
	29.00	51.00	-2.00	-36.00	8128.00	8102.00
	66.00	43.00	11.00	-30.00	8128.00	8103.00
	90.00	20.00	22.00	-21.00	8128.00	8103.00
	78.00	8.00	37.00	-22.00	8128.00	8103.00
	68.00	3.00	49.00	-31.00	8128.00	8103.00
	61.00	-1.00	40.00	-38.00	8130.00	8104.00
	42.00	-10.00	17.00	-34.00	8129.00	8103.00
	40.00	-8.00	0.00	-30.00	8128.00	8103.00
	36.00	-9.00	-15.00	-12.00	8129.00	8104.00
	4.00	-18.00	-21.00	12.00	8128.00	8104.00
	-38.00	-33.00	-26.00	36.00	8129.00	8104.00
	-87.00	-38.00	-35.00	50.00	8128.00	8104.00
	-107.00	-33.00	-36.00	50.00	8128.00	8103.00
	-101.00	-23.00	-26.00	46.00	8128.00	8104.00
	-91.00	-13.00	-18.00	44.00	8128.00	8104.00
	-77.00	-6.00	4.00	35.00	8129.00	8104.00
	-60.00	-5.00	12.00	21.00	8128.00	8103.00
	-40.00	-4.00	-4.00	10.00	8128.00	8104.00
	-8.00	-2.00	10.00	-4.00	8129.00	8103.00
	36.00	-3.00	24.00	-18.00	8129.00	8103.00
	65.00	-1.00	4.00	-31.00	8129.00	8104.00
	83.00	-7.00	-6.00	-39.00	8129.00	8104.00
	111.00	1.00	-10.00	-54.00	8129.00	8104.00
	119.00	5.00	-16.00	-63.00	8128.00	8104.00
	98.00	15.00	-15.00	-72.00	8128.00	8103.00
	42.00	26.00	-12.00	-72.00	8129.00	8104.00
	-45.00	26.00	-12.00	-55.00	8129.00	8104.00
	-31.00	20.00	-6.00	-30.00	8129.00	8104.00
	-10.00	28.00	13.00	-20.00	8129.00	8103.00
	9.00	29.00	42.00	-7.00	8128.00	8103.00
	5.00	28.00	25.00	-8.00	8129.00	8104.00
	-8.00	4.00	5.00	17.00	8128.00	8103.00
	-45.00	-5.00	-4.00	34.00	8127.00	8103.00
	-49.00	-19.00	-21.00	63.00	8128.00	8103.00
	-39.00	-19.00	-32.00	71.00	8128.00	8103.00
	-31.00	-10.00	-48.00	67.00	8128.00	8104.00
	-30.00	-6.00	-64.00	59.00	8128.00	8104.00
	-86.00	-10.00	-75.00	56.00	8127.00	8103.00
	-90.00	-15.00	-73.00	43.00	8127.00	8102.00
	-56.00	-9.00	-57.00	16.00	8127.00	8103.00
	1.00	-12.00	-19.00	8.00	8128.00	8104.00
	52.00	-20.00	47.00	-2.00	8128.00	8103.00
	85.00	-37.00	171.00	1.00	8129.00	8103.00
	75.00	-56.00	160.00	9.00	8128.00	8103.00
	70.00	-58.00	95.00	0.00	8128.00	8103.00
	74.00	-61.00	74.00	3.00	8128.00	8104.00
	74.00	-66.00	52.00	8.00	8127.00	8103.00
	51.00	-58.00	39.00	11.00	8128.00	8104.00
	4.00	-40.00	33.00	14.00	8128.00	8104.00
	-39.00	-25.00	31.00	23.00	8128.00	8104.00
	-73.00	-5.00	20.00	21.00	8128.00	8104.00
	-91.00	9.00	13.00	28.00	8129.00	8104.00
	-106.00	17.00	23.00	31.00	8128.00	8104.00
	-101.00	41.00	52.00	20.00	8128.00	8104.00
	-86.00	40.00	34.00	10.00	8128.00	8104.00
	-83.00	25.00	-12.00	0.00	8128.00	8103.00
	-78.00	20.00	-24.00	-13.00	8129.00	8104.00
	-58.00	14.00	-43.00	-25.00	8129.00	8103.00
	-6.00	10.00	-60.00	-37.00	8128.00	8103.00
	36.00	15.00	-63.00	-50.00	8129.00	8104.00
	76.00	22.00	-67.00	-62.00	8128.00	8104.00
	118.00	27.00	-68.00	-68.00	8129.00	8103.00
	136.00	29.00	-67.00	-74.00	8129.00	8103.00
	135.00	31.00	-69.00	-75.00	8129.00	8104.00
	126.00	30.00	-65.00	-71.00	8129.00	8104.00
	106.00	25.00	-55.00	-58.00	8129.00	8104.00
	70.00	13.00	-32.00	-40.00	8129.00	8104.00
	38.00	7.00	-9.00	-25.00	8129.00	8104.00
	3.00	9.00	23.00	-5.00	8129.00	8104.00
	-41.00	11.00	55.00	23.00	8128.00	8103.00
	-84.00	9.00	48.00	45.00	8128.00	8104.00
	-127.00	17.00	32.00	58.00	8128.00	8104.00
	-135.00	25.00	22.00	55.00	8128.00	8103.00
	-140.00	7.00	1.00	56.00	8128.00	8103.00
	-151.00	-7.00	-21.00	54.00	8128.00	8103.00
	-127.00	-11.00	-30.00	42.00	8128.00	8103.00
	-46.00	-15.00	-36.00	25.00	8128.00	8103.00
	10.00	-21.00	-39.00	11.00	8128.00	8104.00
	3.00	-5.00	-43.00	-11.00	8129.00	8103.00
	-14.00	12.00	-60.00	-27.00	8128.00	8103.00
	30.00	19.00	-61.00	-46.00	8128.00	8103.00
	82.00	23.00	-55.00	-57.00	8129.00	8104.00
	127.00	28.00	-38.00	-61.00	8128.00	8103.00
	144.00	30.00	-21.00	-59.00	8128.00	8103.00
	154.00	43.00	-16.00	-57.00	8128.00	8103.00
	145.00	45.00	-9.00	-51.00	8128.00	8103.00
	126.00	38.00	13.00	-36.00	8129.00	8104.00
	109.00	14.00	30.00	-24.00	8129.00	8103.00
	33.00	-20.00	38.00	-9.00	8129.00	8103.00
	-22.00	-44.00	42.00	22.00	8128.00	8104.00
	-48.00	-56.00	41.00	46.00	8127.00	8103.00
	-55.00	-51.00	31.00	72.00	8129.00	8105.00
	-65.00	-46.00	19.00	72.00	8129.00	8104.00
	-72.00	-42.00	29.00	68.00	8128.00	8104.00
	-66.00	-45.00	30.00	75.00	8128.00	8103.00
	-114.00	-36.00	31.00	65.00	8128.00	8103.00
	-160.00	-31.00	34.00	53.00	8128.00	8103.00
	-116.00	-32.00	25.00	24.00	8129.00	8104.00
	-39.00	-47.00	59.00	3.00	8128.00	8104.00
	37.00	-54.00	28.00	-16.00	8129.00	8104.00
	54.00	-47.00	-12.00	-36.00	8129.00	8104.00
	23.00	-33.00	-17.00	-63.00	8129.00	8104.00
	31.00	-24.00	-10.00	-84.00	8129.00	8103.00
	78.00	-6.00	8.00	-94.00	8129.00	8105.00
	101.00	12.00	9.00	-94.00	8128.00	8103.00
	95.00	17.00	-18.00	-77.00	8128.00	8103.00
	67.00	22.00	-10.00	-46.00	8129.00	8104.00
	46.00	18.00	0.00	-10.00	8128.00	8103.00
	16.00	10.00	17.00	32.00	8128.00	8103.00
	-33.00	-5.00	51.00	77.00	8128.00	8103.00
	-62.00	-24.00	88.00	108.00	8128.00	8104.00
	-88.00	-51.00	48.00	136.00	8128.00	8103.00
	-108.00	-66.00	38.00	148.00	8129.00	8104.00
	-109.00	-45.00	57.00	125.00	8128.00	8103.00
	-104.00	-24.00	56.00	101.00	8128.00	8103.00
	-88.00	3.00	23.00	66.00	8128.00	8103.00
	-65.00	13.00	10.00	38.00	8128.00	8103.00
	-50.00	32.00	62.00	12.00	8128.00	8103.00
	-26.00	51.00	11.00	-16.00	8129.00	8104.00
	-4.00	68.00	-28.00	-40.00	8129.00	8104.00
	26.00	73.00	-46.00	-61.00	8130.00	8105.00
	52.00	71.00	-58.00	-84.00	8129.00	8104.00
	82.00	71.00	-67.00	-106.00	8128.00	8103.00
	98.00	63.00	-80.00	-105.00	8129.00	8104.00
	99.00	52.00	-84.00	-99.00	8129.00	8104.00
	77.00	37.00	-81.00	-85.00	8129.00	8104.00
	43.00	23.00	-76.00	-64.00	8129.00	8104.00
	8.00	7.00	-78.00	-44.00	8129.00	8104.00
	-10.00	-1.00	-58.00	-33.00	8128.00	8104.00
	-22.00	-13.00	-16.00	-34.00	8129.00	8104.00
	-21.00	-26.00	69.00	-14.00	8129.00	8104.00
	-28.00	-34.00	66.00	12.00	8128.00	8104.00
	-41.00	-45.00	-3.00	36.00	8128.00	8104.00
	-49.00	-61.00	-31.00	53.00	8129.00	8104.00
	-49.00	-71.00	-49.00	65.00	8129.00	8104.00
	-40.00	-74.00	-61.00	55.00	8128.00	8104.00
	-30.00	-70.00	-61.00	40.00	8128.00	8104.00
	-15.00	-56.00	-57.00	30.00	8128.00	8103.00
	3.00	-34.00	-17.00	19.00	8128.00	8104.00
	3.00	-9.00	49.00	-4.00	8128.00	8103.00
	15.00	20.00	37.00	-19.00	8128.00	8103.00
	39.00	46.00	-3.00	-22.00	8129.00	8104.00
	55.00	55.00	-33.00	-30.00	8129.00	8104.00
	83.00	65.00	-28.00	-47.00	8128.00	8103.00
	109.00	90.00	-22.00	-73.00	8128.00	8103.00
	110.00	95.00	-3.00	-79.00	8128.00	8103.00
	82.00	71.00	2.00	-70.00	8128.00	8103.00
	57.00	44.00	1.00	-53.00	8128.00	8104.00
	34.00	9.00	-6.00	-22.00	8129.00	8103.00
	-29.00	-26.00	5.00	7.00	8128.00	8104.00
	-62.00	-40.00	35.00	27.00	8128.00	8103.00
	-74.00	-45.00	95.00	56.00	8128.00	8103.00
	-83.00	-48.00	138.00	85.00	8128.00	8103.00
	-90.00	-52.00	137.00	109.00	8128.00	8104.00
	-102.00	-74.00	121.00	123.00	8128.00	8104.00
	-100.00	-77.00	99.00	105.00	8128.00	8104.00
	-85.00	-54.00	72.00	73.00	8128.00	8103.00
	-62.00	-34.00	39.00	53.00	8128.00	8103.00
	-28.00	-22.00	11.00	22.00	8128.00	8103.00
	4.00	-1.00	-10.00	-10.00	8128.00	8103.00
	36.00	12.00	-17.00	-37.00	8129.00	8104.00
	63.00	25.00	-23.00	-60.00	8129.00	8103.00
	78.00	31.00	-35.00	-84.00	8129.00	8104.00
	92.00	32.00	-44.00	-90.00	8129.00	8104.00
	96.00	26.00	-50.00	-94.00	8128.00	8103.00
	81.00	18.00	-52.00	-83.00	8129.00	8104.00
	51.00	14.00	-57.00	-63.00	8129.00	8104.00
	36.00	14.00	-59.00	-47.00	8128.00	8103.00
	16.00	19.00	-47.00	-30.00	8129.00	8104.00
	-12.00	23.00	-38.00	-5.00	8129.00	8104.00
	-40.00	6.00	-35.00	18.00	8129.00	8104.00
	-54.00	-12.00	-27.00	38.00	8129.00	8104.00
	-55.00	-15.00	-23.00	60.00	8128.00	8104.00
	-48.00	-19.00	-17.00	61.00	8128.00	8104.00
	-47.00	-7.00	-21.00	54.00	8129.00	8104.00
	-47.00	-7.00	-26.00	47.00	8128.00	8104.00
	-46.00	1.00	-36.00	36.00	8128.00	8103.00
	-34.00	10.00	-30.00	14.00	8128.00	8104.00
	4.00	17.00	-42.00	-4.00	8128.00	8103.00
	43.00	17.00	-47.00	-17.00	8128.00	8104.00
	39.00	24.00	-43.00	-29.00	8128.00	8103.00
	43.00	22.00	-35.00	-36.00	8128.00	8103.00
	45.00	-5.00	-31.00	-14.00	8129.00	8103.00
	34.00	-30.00	-35.00	-12.00	8128.00	8102.00
	61.00	-29.00	-14.00	-24.00	8128.00	8103.00
	83.00	-33.00	11.00	-28.00	8128.00	8103.00
	90.00	-33.00	15.00	-25.00	8128.00	8103.00
	36.00	-38.00	16.00	-17.00	8129.00	8104.00
	-83.00	-29.00	1.00	-9.00	8129.00	8104.00
	-114.00	-53.00	20.00	-6.00	8128.00	8103.00
	-106.00	-64.00	13.00	-13.00	8129.00	8104.00
	-60.00	-58.00	-19.00	-17.00	8129.00	8104.00
	-37.00	-45.00	-17.00	-9.00	8128.00	8103.00
	-34.00	-18.00	-22.00	1.00	8128.00	8104.00
	-57.00	15.00	-30.00	1.00	8129.00	8103.00
	-59.00	40.00	-20.00	12.00	8129.00	8104.00
	-37.00	59.00	-7.00	18.00	8128.00	8103.00
	-27.00	63.00	41.00	26.00	8128.00	8104.00
	-32.00	49.00	129.00	26.00	8128.00	8104.00
	-3.00	28.00	130.00	28.00	8128.00	8104.00
	32.00	14.00	133.00	29.00	8129.00	8105.00
	45.00	3.00	168.00	30.00	8128.00	8104.00
	46.00	-12.00	150.00	28.00	8129.00	8104.00
	60.00	-6.00	85.00	14.00	8129.00	8104.00
	66.00	-2.00	56.00	-11.00	8129.00	8104.00
	64.00	9.00	54.00	-21.00	8129.00	8104.00
	62.00	8.00	68.00	-8.00	8129.00	8104.00
	66.00	-6.00	43.00	18.00	8128.00	8103.00
	40.00	-7.00	2.00	32.00	8128.00	8104.00
	12.00	-6.00	-29.00	50.00	8128.00	8104.00
	-22.00	-9.00	-67.00	56.00	8128.00	8103.00
	-49.00	-6.00	-92.00	67.00	8128.00	8104.00
	-84.00	-13.00	-103.00	61.00	8128.00	8104.00
	-95.00	-45.00	-89.00	35.00	8128.00	8103.00
	-99.00	-103.00	-39.00	12.00	8128.00	8104.00
	-88.00	-124.00	-8.00	4.00	8128.00	8103.00
	-73.00	-110.00	-76.00	-16.00	8129.00	8103.00
	-52.00	-80.00	-85.00	-54.00	8128.00	8103.00
	-36.00	-30.00	-76.00	-75.00	8128.00	8102.00
	-9.00	41.00	-65.00	-81.00	8129.00	8104.00
	14.00	92.00	-50.00	-75.00	8129.00	8104.00
	37.00	143.00	-27.00	-71.00	8129.00	8104.00
	64.00	172.00	-6.00	-53.00	8128.00	8103.00
	91.00	169.00	40.00	-32.00	8129.00	8104.00
	104.00	138.00	95.00	-15.00	8129.00	8104.00
	103.00	101.00	50.00	-9.00	8129.00	8103.00
	94.00	66.00	48.00	0.00	8128.00	8103.00
	71.00	34.00	83.00	5.00	8128.00	8104.00
	33.00	4.00	72.00	-1.00	8129.00	8104.00
	13.00	-35.00	23.00	13.00	8128.00	8104.00
	-27.00	-42.00	1.00	27.00	8128.00	8104.00
	-58.00	-35.00	15.00	30.00	8127.00	8103.00
	-66.00	-32.00	13.00	30.00	8128.00	8104.00
	-66.00	-30.00	-7.00	24.00	8128.00	8104.00
	-63.00	-31.00	-28.00	10.00	8128.00	8104.00
	-56.00	-39.00	-48.00	0.00	8129.00	8104.00
	-45.00	-44.00	-66.00	-22.00	8129.00	8104.00
	-18.00	-44.00	-73.00	-51.00	8129.00	8104.00
	7.00	-41.00	-91.00	-60.00	8129.00	8104.00
	36.00	-32.00	-111.00	-70.00	8129.00	8104.00
	69.00	-17.00	-108.00	-68.00	8129.00	8104.00
	82.00	-4.00	-93.00	-55.00	8129.00	8103.00
	59.00	-3.00	-76.00	-35.00	8129.00	8104.00
	31.00	2.00	-51.00	-15.00	8129.00	8104.00
	63.00	8.00	-15.00	-2.00	8129.00	8104.00
	87.00	7.00	27.00	6.00	8128.00	8104.00
	83.00	6.00	68.00	24.00	8128.00	8103.00
	31.00	7.00	111.00	37.00	8128.00	8104.00
	-21.00	7.00	106.00	34.00	8128.00	8104.00
	-101.00	0.00	76.00	37.00	8128.00	8104.00
	-104.00	-8.00	36.00	42.00	8128.00	8104.00
	-91.00	-34.00	24.00	53.00	8128.00	8103.00
	-71.00	-46.00	17.00	51.00	8128.00	8104.00
	-53.00	-41.00	-9.00	31.00	8128.00	8104.00
	-54.00	-40.00	-7.00	34.00	8128.00	8104.00
	-39.00	-43.00	25.00	43.00	8128.00	8104.00
	-17.00	-37.00	58.00	45.00	8128.00	8103.00
	2.00	-24.00	61.00	47.00	8128.00	8103.00
	-19.00	-15.00	45.00	36.00	8128.00	8103.00
	-24.00	-14.00	50.00	15.00	8128.00	8103.00
	-34.00	-4.00	39.00	-8.00	8129.00	8104.00
	-38.00	-1.00	-3.00	-25.00	8129.00	8103.00
	5.00	-2.00	-14.00	-35.00	8129.00	8103.00
	54.00	8.00	-17.00	-52.00	8129.00	8104.00
	90.00	24.00	-36.00	-65.00	8129.00	8104.00
	90.00	23.00	-48.00	-71.00	8129.00	8104.00
	50.00	18.00	-52.00	-67.00	8129.00	8104.00
	8.00	15.00	-56.00	-49.00	8128.00	8103.00
	-24.00	8.00	-58.00	-23.00	8128.00	8103.00
	-52.00	-11.00	-49.00	-14.00	8129.00	8103.00
	-27.00	-7.00	-84.00	-17.00	8129.00	8104.00
	24.00	2.00	-80.00	-14.00	8129.00	8104.00
	19.00	-3.00	-42.00	10.00	8128.00	8104.00
	-6.00	-14.00	18.00	34.00	8128.00	8103.00
	-34.00	-16.00	53.00	52.00	8128.00	8104.00
	-29.00	-16.00	24.00	56.00	8128.00	8104.00
	-44.00	-12.00	2.00	43.00	8128.00	8103.00
	-35.00	-7.00	-7.00	20.00	8128.00	8104.00
	-22.00	-7.00	-6.00	4.00	8128.00	8104.00
	-7.00	-9.00	20.00	-1.00	8128.00	8103.00
	29.00	-6.00	30.00	-7.00	8128.00	8103.00
	64.00	-11.00	32.00	5.00	8128.00	8103.00
	85.00	-26.00	26.00	6.00	8128.00	8104.00
	74.00	-24.00	13.00	-6.00	8130.00	8105.00
	58.00	-8.00	28.00	-34.00	8128.00	8104.00
	36.00	8.00	-11.00	-48.00	8128.00	8103.00
	15.00	24.00	-34.00	-46.00	8128.00	8104.00
	19.00	35.00	-22.00	-32.00	8128.00	8103.00
	8.00	27.00	17.00	-5.00	8129.00	8104.00
	-10.00	-14.00	52.00	32.00	8128.00	8104.00
	-22.00	-31.00	19.00	49.00	8127.00	8102.00
	-48.00	-26.00	23.00	53.00	8128.00	8104.00
	-70.00	-15.00	28.00	60.00	8128.00	8103.00
	-76.00	11.00	67.00	41.00	8127.00	8103.00
	-81.00	37.00	58.00	32.00	8128.00	8104.00
	-71.00	66.00	26.00	4.00	8128.00	8104.00
	-69.00	98.00	14.00	-15.00	8128.00	8102.00
	-87.00	102.00	-2.00	-13.00	8128.00	8103.00
	-70.00	75.00	-11.00	-15.00	8129.00	8104.00
	-19.00	26.00	-16.00	-17.00	8128.00	8104.00
	39.00	-3.00	-27.00	-41.00	8128.00	8103.00
	84.00	-21.00	-39.00	-60.00	8128.00	8103.00
	101.00	-32.00	-43.00	-88.00	8128.00	8103.00
	86.00	-41.00	-50.00	-99.00	8128.00	8104.00
	41.00	-44.00	-30.00	-94.00	8129.00	8104.00
	45.00	-25.00	22.00	-79.00	8129.00	8104.00
	37.00	-10.00	16.00	-43.00	8128.00	8103.00
	44.00	14.00	-62.00	-5.00	8129.00	8103.00
	25.00	33.00	-84.00	34.00	8128.00	8103.00
	13.00	57.00	-76.00	56.00	8128.00	8104.00
	-6.00	68.00	-34.00	79.00	8129.00	8104.00
	-24.00	64.00	-50.00	85.00	8129.00	8104.00
	-27.00	56.00	-53.00	88.00	8129.00	8104.00
	-38.00	26.00	-20.00	95.00	8129.00	8104.00
	-74.00	-11.00	29.00	79.00	8128.00	8104.00
	-72.00	-29.00	67.00	62.00	8128.00	8103.00
	-41.00	-9.00	74.00	27.00	8128.00	8104.00
	-8.00	-10.00	64.00	-4.00	8129.00	8103.00
	26.00	-32.00	62.00	-21.00	8129.00	8104.00
	46.00	-61.00	84.00	-25.00	8129.00	8104.00
	66.00	-71.00	54.00	-29.00	8129.00	8103.00
	68.00	-84.00	37.00	-44.00	8128.00	8104.00
	70.00	-71.00	40.00	-57.00	8129.00	8104.00
	37.00	-52.00	29.00	-63.00	8129.00	8104.00
	25.00	-29.00	1.00	-54.00	8128.00	8104.00
	-4.00	-7.00	-16.00	-34.00	8128.00	8103.00
	-8.00	-8.00	-40.00	-14.00	8128.00	8103.00
	23.00	-6.00	-54.00	1.00	8129.00	8103.00
	24.00	-6.00	-54.00	3.00	8128.00	8103.00
	-14.00	-9.00	-68.00	16.00	8128.00	8103.00
	-68.00	-36.00	-80.00	26.00	8128.00	8103.00
	-112.00	-73.00	-76.00	26.00	8127.00	8102.00
	-123.00	-68.00	-66.00	18.00	8128.00	8103.00
	-125.00	-64.00	-41.00	15.00	8128.00	8103.00
	-106.00	-46.00	1.00	11.00	8128.00	8104.00
	-88.00	-39.00	64.00	17.00	8128.00	8103.00
	-53.00	-27.00	110.00	12.00	8128.00	8104.00
	-38.00	-8.00	93.00	0.00	8129.00	8104.00
	-10.00	1.00	80.00	-5.00	8129.00	8104.00
	13.00	8.00	73.00	-6.00	8128.00	8103.00
	14.00	45.00	27.00	-20.00	8129.00	8104.00
	86.00	75.00	1.00	-44.00	8129.00	8104.00
	146.00	103.00	3.00	-60.00	8128.00	8104.00
	164.00	118.00	18.00	-50.00	8129.00	8104.00
	110.00	103.00	-11.00	-40.00	8129.00	8104.00
	70.00	77.00	3.00	-34.00	8128.00	8104.00
	24.00	39.00	20.00	-19.00	8129.00	8104.00
	31.00	14.00	11.00	0.00	8129.00	8104.00
	26.00	-6.00	-4.00	22.00	8129.00	8105.00
	-46.00	-36.00	-7.00	52.00	8128.00	8104.00
	-86.00	-39.00	-8.00	54.00	8129.00	8104.00
	-94.00	-56.00	-13.00	67.00	8128.00	8104.00
	-89.00	-84.00	-21.00	79.00	8128.00	8104.00
	-72.00	-90.00	-15.00	66.00	8128.00	8103.00
	-51.00	-78.00	-32.00	49.00	8128.00	8104.00
	-47.00	-65.00	-46.00	25.00	8128.00	8104.00
	-39.00	-48.00	-46.00	-2.00	8128.00	8103.00
	-44.00	-26.00	-47.00	-37.00	8128.00	8103.00
	-5.00	-9.00	-79.00	-42.00	8128.00	8104.00
	69.00	6.00	-133.00	-40.00	8129.00	8103.00
	121.00	30.00	-155.00	-51.00	8128.00	8102.00
	125.00	58.00	-169.00	-76.00	8129.00	8103.00
	132.00	100.00	-157.00	-89.00	8128.00	8103.00
	140.00	130.00	-105.00	-93.00	8128.00	8103.00
	126.00	125.00	2.00	-76.00	8129.00	8103.00
	97.00	91.00	183.00	-40.00	8129.00	8103.00
	52.00	66.00	256.00	8.00	8128.00	8104.00
	20.00	54.00	171.00	15.00	8128.00	8104.00
	7.00	29.00	139.00	12.00	8127.00	8103.00
	-24.00	7.00	89.00	42.00	8128.00	8103.00
	-64.00	-7.00	28.00	52.00	8128.00	8103.00
	-94.00	-20.00	-2.00	61.00	8129.00	8104.00
	-107.00	-25.00	-3.00	58.00	8128.00	8103.00
	-115.00	-42.00	-2.00	49.00	8128.00	8103.00
	-143.00	-45.00	25.00	48.00	8128.00	8103.00
	-118.00	-41.00	67.00	61.00	8129.00	8104.00
	-78.00	-53.00	135.00	63.00	8129.00	8104.00
	-48.00	-60.00	125.00	54.00	8128.00	8104.00
	-19.00	-55.00	83.00	32.00	8128.00	8104.00
	-2.00	-77.00	-5.00	35.00	8128.00	8104.00
	16.00	-80.00	-40.00	28.00	8129.00	8104.00
	49.00	-55.00	-57.00	-18.00	8129.00	8103.00
	49.00	-31.00	-79.00	-55.00	8129.00	8104.00
	59.00	-9.00	-89.00	-63.00	8129.00	8104.00
	56.00	-3.00	-76.00	-61.00	8129.00	8104.00
	36.00	-3.00	-73.00	-44.00	8129.00	8104.00
	25.00	-15.00	-59.00	-6.00	8129.00	8104.00
	33.00	-15.00	-24.00	21.00	8127.00	8103.00
	35.00	-14.00	50.00	35.00	8127.00	8103.00
	-4.00	-2.00	10.00	35.00	8128.00	8103.00
	-40.00	6.00	-27.00	39.00	8128.00	8103.00
	-62.00	19.00	-28.00	16.00	8128.00	8103.00
	-63.00	48.00	-18.00	-10.00	8128.00	8103.00
	-69.00	44.00	-17.00	-15.00	8129.00	8104.00
	-78.00	43.00	-18.00	-32.00	8128.00	8103.00
	-97.00	42.00	-20.00	-32.00	8129.00	8104.00
	-67.00	35.00	-14.00	-28.00	8129.00	8104.00
	-24.00	17.00	-13.00	-22.00	8128.00	8103.00
	32.00	1.00	-15.00	-16.00	8128.00	8103.00
	65.00	-10.00	1.00	-19.00	8129.00	8104.00
	87.00	-35.00	14.00	-15.00	8129.00	8103.00
	98.00	-40.00	-11.00	-18.00	8129.00	8103.00
	107.00	-41.00	5.00	-27.00	8129.00	8104.00
	92.00	-46.00	-3.00	-50.00	8129.00	8104.00
	120.00	-53.00	6.00	-82.00	8129.00	8104.00
	133.00	-33.00	3.00	-111.00	8128.00	8104.00
	74.00	-30.00	-31.00	-116.00	8129.00	8104.00
	-11.00	-26.00	-62.00	-82.00	8128.00	8103.00
	-47.00	6.00	-77.00	-33.00	8130.00	8104.00
	-64.00	43.00	-73.00	9.00	8128.00	8104.00
	-78.00	67.00	-51.00	41.00	8128.00	8104.00
	-81.00	73.00	-3.00	71.00	8128.00	8103.00
	-84.00	71.00	74.00	94.00	8128.00	8104.00
	-77.00	60.00	161.00	101.00	8128.00	8103.00
	-59.00	37.00	130.00	101.00	8128.00	8103.00
	-49.00	1.00	99.00	99.00	8128.00	8104.00
	-28.00	-45.00	67.00	98.00	8129.00	8104.00
	-48.00	-72.00	32.00	83.00	8127.00	8103.00
	-47.00	-75.00	16.00	41.00	8128.00	8103.00
	-37.00	-26.00	5.00	-12.00	8129.00	8103.00
	-23.00	9.00	-7.00	-29.00	8128.00	8102.00
	10.00	43.00	-17.00	-44.00	8129.00	8104.00
	-9.00	56.00	-36.00	-53.00	8128.00	8103.00
	28.00	71.00	-66.00	-64.00	8128.00	8103.00
	68.00	113.00	-73.00	-90.00	8128.00	8103.00
	106.00	116.00	-68.00	-81.00	8129.00	8104.00
	113.00	72.00	-50.00	-56.00	8129.00	8104.00
	100.00	22.00	-34.00	-29.00	8129.00	8104.00
	68.00	-43.00	-13.00	-3.00	8130.00	8105.00
	9.00	-75.00	-2.00	12.00	8128.00	8103.00
	-35.00	-93.00	-6.00	35.00	8128.00	8104.00
	-46.00	-87.00	-18.00	41.00	8129.00	8104.00
	-46.00	-52.00	-12.00	40.00	8129.00	8104.00
	-46.00	-29.00	-32.00	11.00	8129.00	8104.00
	-102.00	-6.00	-47.00	-22.00	8129.00	8104.00
	-135.00	-30.00	-53.00	-29.00	8129.00	8103.00
	-77.00	-56.00	-61.00	-36.00	8128.00	8103.00
	-14.00	-75.00	-83.00	-51.00	8129.00	8104.00
	31.00	-87.00	-104.00	-61.00	8128.00	8103.00
	76.00	-76.00	-96.00	-52.00	8129.00	8103.00
	81.00	-25.00	-30.00	-31.00	8129.00	8104.00
	93.00	46.00	119.00	-6.00	8129.00	8104.00
	96.00	64.00	322.00	48.00	8128.00	8104.00
	35.00	64.00	312.00	86.00	8129.00	8104.00
	-26.00	70.00	179.00	92.00	8129.00	8104.00
	-52.00	69.00	124.00	103.00	8129.00	8104.00
	-52.00	54.00	78.00	102.00	8128.00	8103.00
	-34.00	36.00	36.00	70.00	8128.00	8104.00
	-22.00	19.00	2.00	44.00	8128.00	8104.00
	-14.00	15.00	-55.00	26.00	8128.00	8104.00
	-15.00	3.00	-101.00	-24.00	8128.00	8103.00
	-20.00	-30.00	-115.00	-65.00	8128.00	8104.00
	-31.00	-45.00	-127.00	-73.00	8128.00	8103.00
	-42.00	-36.00	-116.00	-66.00	8129.00	8104.00
	-21.00	-24.00	-101.00	-48.00	8128.00	8103.00
	-9.00	-23.00	-86.00	-19.00	8128.00	8103.00
	-14.00	-2.00	-67.00	6.00	8128.00	8104.00
	-22.00	-11.00	-29.00	29.00	8128.00	8104.00
	11.00	-34.00	-16.00	44.00	8127.00	8103.00
	39.00	-46.00	-4.00	56.00	8129.00	8104.00
	52.00	-63.00	77.00	67.00	8128.00	8103.00
	66.00	-80.00	197.00	79.00	8128.00	8103.00
	74.00	-99.00	161.00	77.00	8130.00	8105.00
	81.00	-84.00	101.00	42.00	8128.00	8104.00
	83.00	-54.00	96.00	-5.00	8129.00	8104.00
	77.00	-21.00	79.00	-70.00	8129.00	8104.00
	57.00	19.00	-2.00	-92.00	8129.00	8103.00
	40.00	48.00	-42.00	-83.00	8129.00	8104.00
	27.00	66.00	-66.00	-62.00	8129.00	8104.00
	-10.00	74.00	-90.00	-34.00	8128.00	8103.00
	-28.00	79.00	-121.00	-20.00	8129.00	8104.00
	-58.00	77.00	-124.00	-32.00	8129.00	8104.00
	-71.00	45.00	-105.00	-36.00	8129.00	8104.00
	-67.00	27.00	-70.00	-38.00	8130.00	8104.00
	-92.00	19.00	0.00	-51.00	8129.00	8104.00
	-85.00	25.00	70.00	-28.00	8129.00	8103.00
	-83.00	31.00	83.00	-8.00	8129.00	8104.00
	-45.00	51.00	3.00	-4.00	8129.00	8104.00
	20.00	67.00	-47.00	-2.00	8128.00	8103.00
	27.00	79.00	-62.00	-11.00	8129.00	8104.00
	28.00	65.00	-59.00	-13.00	8129.00	8104.00
	40.00	43.00	-61.00	-10.00	8129.00	8103.00
	59.00	15.00	-64.00	2.00	8128.00	8103.00
	62.00	-22.00	-43.00	26.00	8127.00	8103.00
	64.00	-51.00	-21.00	27.00	8128.00	8103.00
	44.00	-74.00	-3.00	-8.00	8128.00	8103.00
	13.00	-79.00	35.00	-41.00	8128.00	8103.00
	-15.00	-64.00	37.00	-50.00	8128.00	8103.00
	-73.00	-52.00	49.00	-9.00	8129.00	8104.00
	-101.00	-41.00	72.00	37.00	8128.00	8103.00
	-129.00	-43.00	53.00	74.00	8128.00	8104.00
	-145.00	-57.00	24.00	91.00	8128.00	8103.00
	-155.00	-32.00	36.00	79.00	8128.00	8103.00
	-147.00	-25.00	22.00	76.00	8128.00	8103.00
	-92.00	-23.00	29.00	54.00	8128.00	8103.00
	-39.00	-6.00	71.00	29.00	8127.00	8103.00
	23.00	6.00	159.00	28.00	8128.00	8103.00
	73.00	-20.00	122.00	30.00	8128.00	8103.00
	96.00	-27.00	98.00	22.00	8128.00	8103.00
	104.00	-38.00	30.00	-6.00	8129.00	8104.00
	136.00	-45.00	-33.00	-20.00	8128.00	8103.00
	163.00	-25.00	-62.00	-65.00	8128.00	8103.00
	170.00	19.00	-70.00	-107.00	8128.00	8103.00
	152.00	71.00	-73.00	-120.00	8128.00	8103.00
	130.00	112.00	-80.00	-112.00	8129.00	8104.00
	82.00	120.00	-85.00	-74.00	8129.00	8104.00
	49.00	99.00	-111.00	-36.00	8129.00	8105.00
	25.00	73.00	-108.00	-2.00	8129.00	8104.00
	-27.00	30.00	-78.00	26.00	8129.00	8104.00
	-64.00	-3.00	-8.00	42.00	8128.00	8104.00
	-104.00	-47.00	122.00	64.00	8129.00	8104.00
	-135.00	-90.00	129.00	90.00	8129.00	8104.00
	-164.00	-105.00	95.00	107.00	8129.00	8105.00
	-165.00	-84.00	97.00	87.00	8128.00	8104.00
	-160.00	-80.00	40.00	74.00	8129.00	8104.00
	-177.00	-99.00	26.00	43.00	8128.00	8103.00
	-160.00	-63.00	28.00	-27.00	8129.00	8104.00
	-130.00	-23.00	24.00	-45.00	8129.00	8104.00
	-60.00	8.00	-11.00	-43.00	8129.00	8104.00
	57.00	31.00	-55.00	-46.00	8128.00	8103.00
	150.00	74.00	-79.00	-50.00	8128.00	8104.00
	219.00	129.00	-116.00	-67.00	8128.00	8103.00
	224.00	141.00	-142.00	-94.00	8128.00	8103.00
	150.00	125.00	-117.00	-89.00	8128.00	8103.00
	124.00	77.00	-76.00	-65.00	8127.00	8102.00
	119.00	41.00	-59.00	-36.00	8128.00	8102.00
	87.00	33.00	-97.00	-17.00	8128.00	8103.00
	22.00	4.00	-118.00	-5.00	8128.00	8103.00
	-68.00	-29.00	-101.00	-12.00	8129.00	8104.00
	-80.00	-38.00	-65.00	-44.00	8129.00	8104.00
	-70.00	-58.00	29.00	-70.00	8128.00	8103.00
	-118.00	-77.00	63.00	-51.00	8128.00	8103.00
	-165.00	-110.00	159.00	14.00	8128.00	8104.00
	-128.00	-130.00	173.00	72.00	8128.00	8103.00
	-69.00	-108.00	89.00	100.00	8128.00	8103.00
	-35.00	-88.00	65.00	115.00	8128.00	8103.00
	-14.00	-61.00	80.00	122.00	8129.00	8104.00
	7.00	-60.00	105.00	118.00	8130.00	8105.00
	25.00	-51.00	97.00	104.00	8128.00	8104.00
	65.00	-32.00	121.00	80.00	8129.00	8104.00
	95.00	-13.00	71.00	47.00	8129.00	8104.00
	103.00	-10.00	25.00	7.00	8127.00	8103.00
	114.00	-24.00	13.00	-17.00	8129.00	8103.00
	45.00	7.00	-10.00	-60.00	8128.00	8103.00
	7.00	56.00	-40.00	-82.00	8128.00	8103.00
	72.00	85.00	-68.00	-59.00	8128.00	8103.00
	121.00	108.00	-91.00	-39.00	8129.00	8104.00
	104.00	91.00	-66.00	-15.00	8128.00	8103.00
	56.00	60.00	-76.00	4.00	8128.00	8103.00
	-17.00	63.00	-107.00	10.00	8128.00	8103.00
	-62.00	61.00	-105.00	15.00	8129.00	8105.00
	-114.00	52.00	-66.00	6.00	8128.00	8104.00
	-174.00	52.00	-14.00	1.00	8127.00	8103.00
	-172.00	37.00	62.00	-6.00	8129.00	8104.00
	-164.00	14.00	69.00	-16.00	8128.00	8103.00
	-152.00	-8.00	36.00	-23.00	8129.00	8103.00
	-129.00	-45.00	18.00	-40.00	8129.00	8104.00
	-61.00	-34.00	2.00	-29.00	8128.00	8103.00
	14.00	-21.00	15.00	-21.00	8129.00	8104.00
	78.00	-3.00	29.00	-22.00	8129.00	8104.00
	136.00	7.00	69.00	-22.00	8129.00	8104.00
	173.00	8.00	79.00	-18.00	8128.00	8103.00
	161.00	8.00	33.00	-18.00	8128.00	8103.00
	137.00	-16.00	52.00	11.00	8128.00	8103.00
	121.00	-31.00	58.00	26.00	8127.00	8103.00
	96.00	-10.00	-20.00	10.00	8127.00	8103.00
	72.00	-14.00	-64.00	-3.00	8129.00	8103.00
	54.00	-35.00	-90.00	-23.00	8129.00	8103.00
	20.00	-35.00	-104.00	-29.00	8129.00	8104.00
	-29.00	-15.00	-104.00	-33.00	8128.00	8103.00
	-44.00	-2.00	-118.00	-24.00	8128.00	8103.00
	-45.00	5.00	-135.00	-11.00	8128.00	8103.00
	-97.00	20.00	-135.00	3.00	8128.00	8104.00
	-143.00	20.00	-120.00	5.00	8128.00	8104.00
	-167.00	10.00	-60.00	13.00	8128.00	8104.00
	-154.00	-17.00	61.00	19.00	8128.00	8104.00
	-79.00	-35.00	258.00	27.00	8129.00	8104.00
	24.00	-60.00	179.00	36.00	8128.00	8104.00
	101.00	-75.00	145.00	41.00	8128.00	8103.00
	104.00	-60.00	118.00	36.00	8128.00	8104.00
	75.00	-27.00	28.00	15.00	8128.00	8103.00
	40.00	-11.00	-12.00	-1.00	8129.00	8104.00
	6.00	17.00	-27.00	-29.00	8129.00	8104.00
	-9.00	38.00	-24.00	-47.00	8129.00	8104.00
	-8.00	39.00	3.00	-38.00	8129.00	8104.00
	2.00	66.00	60.00	-18.00	8129.00	8104.00
	0.00	83.00	97.00	-8.00	8129.00	8104.00
	-21.00	56.00	91.00	5.00	8129.00	8104.00
	-43.00	22.00	64.00	12.00	8128.00	8104.00
	-59.00	14.00	38.00	10.00	8129.00	8104.00
	-66.00	16.00	12.00	-16.00	8128.00	8104.00
	-41.00	33.00	-80.00	-32.00	8128.00	8103.00
	-16.00	33.00	-123.00	-31.00	8128.00	8103.00
	-8.00	3.00	-128.00	-41.00	8128.00	8103.00
	42.00	-22.00	-127.00	-54.00	8128.00	8103.00
	35.00	-11.00	-138.00	-63.00	8129.00	8104.00
	14.00	-19.00	-159.00	-65.00	8128.00	8103.00
	-7.00	-12.00	-174.00	-52.00	8128.00	8103.00
	-22.00	17.00	-188.00	-42.00	8128.00	8103.00
	-50.00	24.00	-150.00	-19.00	8129.00	8104.00
	-43.00	26.00	-86.00	0.00	8129.00	8104.00
	-4.00	16.00	23.00	36.00	8128.00	8104.00
	50.00	-13.00	183.00	78.00	8128.00	8103.00
	68.00	-14.00	261.00	94.00	8128.00	8103.00
	41.00	-33.00	190.00	124.00	8128.00	8103.00
	39.00	-61.00	143.00	133.00	8129.00	8104.00
	-28.00	-76.00	79.00	113.00	8128.00	8103.00
	-22.00	-52.00	68.00	63.00	8128.00	8104.00
	-11.00	-24.00	43.00	28.00	8129.00	8105.00
	-28.00	-15.00	57.00	32.00	8128.00	8104.00
	-27.00	-18.00	95.00	30.00	8128.00	8104.00
	-41.00	-31.00	69.00	35.00	8128.00	8103.00
	-46.00	-22.00	7.00	31.00	8129.00	8104.00
	-56.00	-35.00	1.00	26.00	8128.00	8104.00
	-48.00	-43.00	-8.00	25.00	8128.00	8103.00
	-25.00	-47.00	-15.00	15.00	8128.00	8103.00
	-27.00	-45.00	-21.00	-10.00	8129.00	8103.00
	-10.00	-19.00	11.00	-57.00	8128.00	8104.00
	22.00	-17.00	46.00	-113.00	8128.00	8103.00
	48.00	-24.00	-5.00	-128.00	8128.00	8103.00
	46.00	-26.00	-50.00	-132.00	8128.00	8103.00
	49.00	-15.00	-57.00	-126.00	8127.00	8102.00
	80.00	-14.00	-72.00	-99.00	8129.00	8103.00
	84.00	-25.00	-89.00	-47.00	8129.00	8104.00
	93.00	11.00	-98.00	-30.00	8129.00	8104.00
	79.00	59.00	-91.00	-14.00	8129.00	8104.00
	34.00	94.00	-86.00	11.00	8128.00	8104.00
	-19.00	100.00	-79.00	39.00	8128.00	8104.00
	-14.00	59.00	-57.00	60.00	8128.00	8104.00
	-52.00	13.00	-38.00	81.00	8128.00	8103.00
	-116.00	-20.00	-39.00	59.00	8129.00	8104.00
	-227.00	-30.00	-42.00	39.00	8128.00	8104.00
	-184.00	-51.00	-24.00	42.00	8129.00	8104.00
	-90.00	-52.00	-10.00	34.00	8128.00	8104.00
	-9.00	-39.00	4.00	44.00	8128.00	8104.00
	12.00	-27.00	1.00	60.00	8129.00	8104.00
	47.00	-5.00	58.00	69.00	8128.00	8104.00
	107.00	3.00	170.00	52.00	8128.00	8103.00
	105.00	-5.00	179.00	43.00	8129.00	8104.00
	63.00	-26.00	134.00	19.00	8128.00	8104.00
	44.00	-25.00	105.00	-16.00	8128.00	8103.00
	34.00	-25.00	49.00	-54.00	8128.00	8103.00
	64.00	23.00	-18.00	-133.00	8129.00	8105.00
	84.00	76.00	-76.00	-189.00	8128.00	8104.00
	81.00	52.00	-151.00	-218.00	8129.00	8104.00
	52.00	36.00	-172.00	-192.00	8128.00	8104.00
	46.00	59.00	-171.00	-133.00	8128.00	8103.00
	81.00	70.00	-195.00	-64.00	8128.00	8103.00
	73.00	54.00	-211.00	-6.00	8129.00	8104.00
	-105.00	37.00	-172.00	45.00	8128.00	8104.00
	-152.00	24.00	-94.00	81.00	8128.00	8103.00
	-110.00	-7.00	14.00	124.00	8128.00	8104.00
	-62.00	-32.00	148.00	160.00	8128.00	8103.00
	-19.00	-10.00	316.00	192.00	8128.00	8103.00
	-5.00	-34.00	426.00	196.00	8128.00	8103.00
	5.00	-53.00	367.00	159.00	8128.00	8103.00
	-12.00	-37.00	205.00	96.00	8128.00	8104.00
	-38.00	-2.00	128.00	13.00	8128.00	8103.00
	-15.00	35.00	50.00	-45.00	8128.00	8103.00
	25.00	68.00	24.00	-62.00	8129.00	8103.00
	10.00	101.00	25.00	-75.00	8129.00	8104.00
	2.00	83.00	-17.00	-79.00	8128.00	8103.00
	47.00	70.00	-12.00	-82.00	8128.00	8103.00
	122.00	65.00	33.00	-70.00	8128.00	8103.00
	151.00	35.00	-20.00	-74.00	8129.00	8104.00
	152.00	11.00	-75.00	-57.00	8129.00	8104.00
	139.00	20.00	-74.00	-45.00	8129.00	8104.00
	96.00	5.00	-87.00	-20.00	8129.00	8103.00
	35.00	0.00	-124.00	-6.00	8129.00	8103.00
	-18.00	1.00	-121.00	17.00	8128.00	8104.00
	-59.00	4.00	-98.00	27.00	8128.00	8103.00
	-81.00	-29.00	-34.00	49.00	8128.00	8104.00
	-90.00	-76.00	36.00	36.00	8128.00	8104.00
	-72.00	-65.00	7.00	16.00	8128.00	8103.00
	-77.00	-77.00	24.00	14.00	8129.00	8104.00
	-98.00	-89.00	38.00	3.00	8128.00	8103.00
	-95.00	-49.00	38.00	-9.00	8130.00	8105.00
	-94.00	-12.00	17.00	-19.00	8129.00	8104.00
	-125.00	-29.00	-30.00	-1.00	8129.00	8104.00
	-139.00	-61.00	-68.00	41.00	8128.00	8104.00
	-117.00	-90.00	-96.00	43.00	8128.00	8103.00
	-63.00	-97.00	-110.00	18.00	8128.00	8104.00
	-3.00	-92.00	-111.00	11.00	8128.00	8104.00
	43.00	-87.00	-82.00	25.00	8127.00	8102.00
	54.00	-72.00	-35.00	27.00	8128.00	8104.00
	40.00	-48.00	18.00	22.00	8128.00	8104.00
	8.00	-19.00	29.00	14.00	8128.00	8103.00
	-15.00	18.00	6.00	5.00	8128.00	8103.00
	-39.00	43.00	3.00	-6.00	8128.00	8103.00
	-37.00	38.00	41.00	-13.00	8129.00	8104.00
	-12.00	21.00	129.00	-11.00	8129.00	8103.00
	9.00	39.00	61.00	-41.00	8128.00	8103.00
	1.00	38.00	30.00	-59.00	8128.00	8103.00
	-59.00	5.00	11.00	-60.00	8128.00	8103.00
	-112.00	-40.00	9.00	-50.00	8129.00	8104.00
	-96.00	-26.00	12.00	-17.00	8128.00	8103.00
	-46.00	14.00	-18.00	-21.00	8128.00	8103.00
	-9.00	51.00	-53.00	-25.00	8129.00	8104.00
	45.00	73.00	-52.00	-34.00	8128.00	8103.00
	88.00	84.00	-36.00	-32.00	8129.00	8104.00
	100.00	98.00	-15.00	-13.00	8129.00	8104.00
	91.00	88.00	-10.00	2.00	8128.00	8104.00
	117.00	72.00	19.00	14.00	8127.00	8103.00
	128.00	15.00	47.00	30.00	8129.00	8104.00
	56.00	-34.00	26.00	55.00	8128.00	8103.00
	14.00	-31.00	5.00	17.00	8128.00	8104.00
	6.00	-25.00	-17.00	-1.00	8129.00	8103.00
	12.00	-21.00	-47.00	-4.00	8129.00	8104.00
	20.00	-26.00	-42.00	-47.00	8129.00	8104.00
	54.00	-25.00	-65.00	-44.00	8129.00	8104.00
	59.00	-29.00	-110.00	-26.00	8129.00	8104.00
	3.00	-21.00	-150.00	-46.00	8129.00	8104.00
	-14.00	-37.00	-162.00	-111.00	8129.00	8104.00
	-3.00	-51.00	-127.00	-96.00	8129.00	8104.00
	-54.00	-43.00	-122.00	-26.00	8129.00	8104.00
	-111.00	-17.00	-124.00	28.00	8128.00	8104.00
	-85.00	27.00	-88.00	65.00	8128.00	8103.00
	28.00	42.00	21.00	84.00	8128.00	8103.00
	138.00	18.00	85.00	85.00	8128.00	8103.00
	190.00	-13.00	132.00	97.00	8128.00	8103.00
	138.00	-27.00	174.00	100.00	8127.00	8103.00
	75.00	-26.00	186.00	82.00	8128.00	8103.00
	27.00	-35.00	190.00	83.00	8128.00	8103.00
	-14.00	-42.00	187.00	83.00	8127.00	8103.00
	-38.00	-50.00	169.00	61.00	8128.00	8104.00
	-29.00	-32.00	92.00	19.00	8128.00	8103.00
	-13.00	9.00	119.00	-59.00	8128.00	8103.00
	-9.00	69.00	101.00	-102.00	8128.00	8103.00
	5.00	117.00	34.00	-119.00	8128.00	8104.00
	-43.00	99.00	16.00	-103.00	8128.00	8103.00
	-90.00	38.00	-8.00	-72.00	8129.00	8104.00
	-109.00	1.00	-27.00	-43.00	8129.00	8104.00
	-72.00	-54.00	-59.00	-20.00	8129.00	8104.00
	-29.00	-119.00	-82.00	18.00	8128.00	8103.00
	-42.00	-145.00	-112.00	41.00	8128.00	8104.00
	-85.00	-92.00	-100.00	29.00	8129.00	8104.00
	-139.00	-6.00	-48.00	-2.00	8128.00	8103.00
	-103.00	68.00	29.00	-11.00	8129.00	8104.00
	-78.00	72.00	257.00	-7.00	8129.00	8104.00
	-48.00	39.00	226.00	-20.00	8129.00	8104.00
	37.00	27.00	49.00	-18.00	8129.00	8103.00
	148.00	-25.00	7.00	36.00	8128.00	8104.00
	200.00	-25.00	4.00	71.00	8128.00	8104.00
	174.00	-1.00	-48.00	78.00	8128.00	8104.00
	164.00	31.00	-110.00	62.00	8128.00	8104.00
	110.00	106.00	-140.00	11.00	8128.00	8104.00
	50.00	136.00	-168.00	-45.00	8129.00	8104.00
	-26.00	162.00	-173.00	-139.00	8128.00	8103.00
	-57.00	173.00	-176.00	-142.00	8129.00	8105.00
	-90.00	143.00	-154.00	-93.00	8129.00	8104.00
	-52.00	136.00	-111.00	-45.00	8129.00	8104.00
	-2.00	139.00	-44.00	0.00	8129.00	8104.00
	-32.00	65.00	29.00	62.00	8128.00	8104.00
	-49.00	-14.00	18.00	94.00	8128.00	8104.00
	-82.00	-60.00	38.00	97.00	8129.00	8104.00
	-119.00	-86.00	65.00	34.00	8128.00	8104.00
	-131.00	-105.00	45.00	-61.00	8129.00	8104.00
	-123.00	-141.00	60.00	-62.00	8129.00	8104.00
	-101.00	-162.00	36.00	-30.00	8129.00	8104.00
	-62.00	-157.00	-57.00	-8.00	8129.00	8104.00
	-42.00	-169.00	-98.00	55.00	8128.00	8104.00
	-10.00	-148.00	-69.00	93.00	8127.00	8103.00
	-28.00	-96.00	61.00	100.00	8127.00	8103.00
	-43.00	-81.00	185.00	115.00	8128.00	8103.00
	53.00	-79.00	143.00	133.00	8128.00	8103.00
	93.00	-97.00	211.00	164.00	8128.00	8103.00
	-4.00	-103.00	206.00	140.00	8128.00	8103.00
	-32.00	-69.00	82.00	46.00	8128.00	8103.00
	-15.00	-37.00	26.00	-23.00	8129.00	8104.00
	-54.00	-16.00	-27.00	-98.00	8129.00	8104.00
	-3.00	-14.00	-50.00	-134.00	8128.00	8104.00
	57.00	19.00	-96.00	-131.00	8128.00	8103.00
	110.00	31.00	-158.00	-115.00	8129.00	8103.00
	179.00	75.00	-179.00	-110.00	8128.00	8103.00
	202.00	113.00	-151.00	-116.00	8128.00	8104.00
	182.00	152.00	19.00	-209.00	8128.00	8104.00
	116.00	147.00	144.00	-218.00	8128.00	8104.00
	49.00	130.00	110.00	-161.00	8128.00	8104.00
	20.00	113.00	37.00	-91.00	8129.00	8104.00
	33.00	94.00	-53.00	-19.00	8129.00	8103.00
	40.00	32.00	-136.00	82.00	8128.00	8103.00
	66.00	4.00	-189.00	134.00	8128.00	8103.00
	62.00	17.00	-165.00	107.00	8128.00	8104.00
	46.00	3.00	-16.00	102.00	8129.00	8104.00
	61.00	-57.00	163.00	126.00	8128.00	8103.00
	5.00	-115.00	300.00	144.00	8129.00	8104.00
	-90.00	-155.00	334.00	141.00	8129.00	8104.00
	-166.00	-201.00	224.00	164.00	8129.00	8104.00
	-197.00	-166.00	103.00	113.00	8128.00	8104.00
	-194.00	-104.00	51.00	39.00	8128.00	8104.00
	-206.00	-41.00	-13.00	-23.00	8129.00	8103.00
	-123.00	62.00	-65.00	-57.00	8129.00	8104.00
	7.00	119.00	-93.00	-82.00	8129.00	8104.00
	10.00	131.00	-139.00	-70.00	8129.00	8104.00
	-22.00	155.00	-182.00	-62.00	8128.00	8104.00
	-27.00	179.00	-188.00	-96.00	8128.00	8103.00
	-8.00	166.00	-181.00	-133.00	8128.00	8103.00
	10.00	106.00	-133.00	-116.00	8127.00	8103.00
	64.00	56.00	-74.00	-61.00	8128.00	8103.00
	102.00	-3.00	-40.00	-1.00	8128.00	8103.00
	79.00	-58.00	19.00	42.00	8127.00	8103.00
	48.00	-81.00	-38.00	42.00	8128.00	8103.00
	23.00	-104.00	-108.00	40.00	8127.00	8102.00
	4.00	-106.00	-40.00	34.00	8128.00	8103.00
	6.00	-84.00	69.00	35.00	8128.00	8103.00
	-4.00	-53.00	170.00	38.00	8128.00	8103.00
	-117.00	-52.00	123.00	62.00	8128.00	8103.00
	-125.00	-44.00	42.00	47.00	8129.00	8104.00
	-82.00	-25.00	-3.00	30.00	8128.00	8103.00
	-54.00	-58.00	-53.00	7.00	8128.00	8103.00
	-28.00	-67.00	-75.00	-37.00	8129.00	8104.00
	35.00	-42.00	-99.00	-81.00	8128.00	8103.00
	32.00	-3.00	-94.00	-127.00	8129.00	8104.00
	20.00	26.00	-48.00	-141.00	8129.00	8104.00
	19.00	19.00	-41.00	-99.00	8128.00	8104.00
	-23.00	23.00	-66.00	-46.00	8129.00	8104.00
	-83.00	54.00	-20.00	-2.00	8129.00	8104.00
	-119.00	74.00	-6.00	44.00	8128.00	8103.00
	-57.00	80.00	-23.00	68.00	8129.00	8104.00
	30.00	43.00	70.00	77.00	8129.00	8104.00
	104.00	35.00	222.00	60.00	8128.00	8104.00
	158.00	33.00	297.00	59.00	8129.00	8103.00
	202.00	37.00	183.00	53.00	8128.00	8103.00
	182.00	38.00	66.00	46.00	8128.00	8103.00
	131.00	37.00	-20.00	43.00	8128.00	8104.00
	58.00	29.00	21.00	-11.00	8129.00	8103.00
	38.00	13.00	122.00	-58.00	8130.00	8104.00
	41.00	-36.00	107.00	-51.00	8129.00	8104.00
	-7.00	-84.00	117.00	-12.00	8128.00	8103.00
	-12.00	-171.00	-12.00	40.00	8129.00	8104.00
	-134.00	-206.00	-73.00	94.00	8128.00	8104.00
	-210.00	-198.00	-105.00	105.00	8129.00	8104.00
	-131.00	-193.00	-125.00	117.00	8128.00	8104.00
	-9.00	-130.00	-138.00	96.00	8127.00	8103.00
	51.00	-41.00	-139.00	61.00	8128.00	8104.00
	68.00	36.00	-102.00	26.00	8128.00	8104.00
	92.00	116.00	-45.00	-25.00	8128.00	8103.00
	68.00	162.00	90.00	-51.00	8128.00	8103.00
	3.00	176.00	196.00	-56.00	8128.00	8104.00
	-30.00	200.00	157.00	-61.00	8128.00	8103.00
	-37.00	177.00	133.00	-41.00	8128.00	8103.00
	-37.00	112.00	53.00	-16.00	8129.00	8104.00
	-79.00	62.00	-7.00	-37.00	8129.00	8104.00
	-14.00	69.00	-70.00	-86.00	8128.00	8103.00
	25.00	62.00	-140.00	-127.00	8128.00	8103.00
	54.00	33.00	-190.00	-161.00	8128.00	8104.00
	101.00	7.00	-212.00	-168.00	8129.00	8104.00
	95.00	-16.00	-200.00	-150.00	8129.00	8104.00
	74.00	-35.00	-183.00	-110.00	8129.00	8104.00
	27.00	-38.00	-150.00	-62.00	8129.00	8104.00
	-24.00	-24.00	-68.00	-44.00	8128.00	8103.00
	12.00	-20.00	-24.00	-67.00	8128.00	8103.00
	-18.00	-32.00	15.00	-60.00	8129.00	8104.00
	-73.00	-39.00	22.00	9.00	8129.00	8104.00
	-88.00	-34.00	-12.00	71.00	8128.00	8104.00
	-82.00	-40.00	76.00	133.00	8128.00	8104.00
	-62.00	-48.00	155.00	168.00	8129.00	8104.00
	-81.00	-34.00	144.00	149.00	8128.00	8103.00
	-102.00	-22.00	52.00	76.00	8128.00	8104.00
	-60.00	0.00	20.00	45.00	8129.00	8104.00
	1.00	-9.00	29.00	61.00	8128.00	8104.00
	24.00	-35.00	99.00	89.00	8128.00	8104.00
	28.00	-34.00	203.00	121.00	8127.00	8103.00
	20.00	-57.00	198.00	121.00	8128.00	8103.00
	12.00	-89.00	111.00	102.00	8128.00	8103.00
	5.00	-99.00	-8.00	45.00	8128.00	8103.00
	17.00	-73.00	-6.00	-12.00	8129.00	8104.00
	-22.00	-78.00	15.00	-38.00	8128.00	8103.00
	-39.00	-148.00	33.00	-41.00	8129.00	8104.00
	-23.00	-164.00	128.00	-23.00	8129.00	8104.00
	13.00	-122.00	83.00	1.00	8128.00	8104.00
	5.00	-77.00	72.00	40.00	8128.00	8103.00
	-20.00	1.00	-2.00	48.00	8128.00	8104.00
	-23.00	103.00	-90.00	56.00	8128.00	8103.00
	-26.00	182.00	-104.00	52.00	8128.00	8104.00
	-90.00	273.00	-95.00	2.00	8129.00	8104.00
	-133.00	267.00	-139.00	-96.00	8128.00	8103.00
	-116.00	200.00	-100.00	-168.00	8129.00	8104.00
	-47.00	134.00	-138.00	-245.00	8128.00	8103.00
	18.00	70.00	-160.00	-244.00	8129.00	8104.00
	60.00	10.00	-155.00	-206.00	8129.00	8104.00
	63.00	-11.00	-133.00	-149.00	8128.00	8103.00
	118.00	-12.00	-102.00	-94.00	8129.00	8104.00
	160.00	-12.00	-59.00	-80.00	8129.00	8104.00
	110.00	-32.00	-3.00	-50.00	8128.00	8103.00
	14.00	-41.00	60.00	27.00	8128.00	8104.00
	21.00	-73.00	112.00	135.00	8129.00	8104.00
	64.00	-74.00	122.00	207.00	8129.00	8103.00
	92.00	-80.00	127.00	223.00	8129.00	8105.00
	22.00	-115.00	150.00	204.00	8129.00	8104.00
	-82.00	-127.00	184.00	187.00	8129.00	8104.00
	-135.00	-102.00	124.00	174.00	8129.00	8104.00
	-122.00	-70.00	130.00	179.00	8129.00	8104.00
	-109.00	-56.00	79.00	151.00	8128.00	8103.00
	-100.00	-20.00	1.00	67.00	8128.00	8103.00
	-56.00	48.00	-36.00	-14.00	8129.00	8103.00
	-39.00	108.00	-72.00	-84.00	8128.00	8103.00
	-127.00	139.00	-126.00	-128.00	8128.00	8104.00
	-154.00	118.00	-144.00	-199.00	8128.00	8104.00
	-89.00	103.00	-156.00	-229.00	8128.00	8103.00
	56.00	105.00	-183.00	-212.00	8127.00	8103.00
	177.00	98.00	-232.00	-205.00	8128.00	8103.00
	271.00	91.00	-275.00	-241.00	8128.00	8103.00
	305.00	86.00	-298.00	-247.00	8127.00	8103.00
	257.00	71.00	-334.00	-203.00	8128.00	8103.00
	185.00	42.00	-264.00	-102.00	8129.00	8103.00
	169.00	-16.00	-73.00	25.00	8128.00	8104.00
	108.00	-106.00	149.00	142.00	8129.00	8104.00
	96.00	-168.00	139.00	236.00	8129.00	8104.00
	25.00	-203.00	132.00	306.00	8129.00	8104.00
	-34.00	-196.00	105.00	286.00	8129.00	8104.00
	-74.00	-132.00	75.00	223.00	8128.00	8103.00
	-118.00	-93.00	182.00	177.00	8128.00	8103.00
	-148.00	-37.00	451.00	114.00	8128.00	8104.00
	-136.00	4.00	323.00	93.00	8128.00	8104.00
	-137.00	26.00	264.00	89.00	8129.00	8104.00
	-113.00	40.00	340.00	77.00	8128.00	8104.00
	-108.00	28.00	482.00	43.00	8128.00	8103.00
	-87.00	5.00	313.00	-6.00	8129.00	8103.00
	-31.00	-11.00	194.00	-22.00	8129.00	8103.00
	35.00	-9.00	115.00	-72.00	8128.00	8103.00
	14.00	5.00	37.00	-98.00	8128.00	8103.00
	-61.00	16.00	-19.00	-113.00	8128.00	8103.00
	-14.00	12.00	-75.00	-110.00	8129.00	8105.00
	34.00	-14.00	-137.00	-97.00	8128.00	8103.00
	101.00	-35.00	-192.00	-113.00	8128.00	8104.00
	155.00	-54.00	-231.00	-128.00	8128.00	8103.00
	172.00	-57.00	-268.00	-133.00	8129.00	8104.00
	97.00	-16.00	-288.00	-137.00	8129.00	8104.00
	111.00	14.00	-297.00	-95.00	8129.00	8104.00
	161.00	0.00	-286.00	-60.00	8129.00	8104.00
	116.00	48.00	-242.00	-28.00	8129.00	8104.00
	28.00	79.00	-137.00	22.00	8128.00	8104.00
	-52.00	119.00	-106.00	20.00	8128.00	8104.00
	-189.00	181.00	-70.00	60.00	8129.00	8104.00
	-262.00	165.00	-4.00	142.00	8128.00	8104.00
	-262.00	112.00	16.00	183.00	8129.00	8104.00
	-172.00	36.00	34.00	178.00	8128.00	8104.00
	-129.00	-14.00	99.00	152.00	8129.00	8104.00
	-105.00	-64.00	134.00	114.00	8128.00	8104.00
	-73.00	-116.00	154.00	70.00	8128.00	8104.00
	-3.00	-131.00	127.00	-14.00	8128.00	8103.00
	34.00	-122.00	113.00	-96.00	8128.00	8103.00
	37.00	-115.00	137.00	-165.00	8127.00	8103.00
	36.00	-90.00	79.00	-158.00	8127.00	8103.00
	46.00	-58.00	-50.00	-123.00	8128.00	8102.00
	21.00	-40.00	-95.00	-88.00	8128.00	8103.00
	-10.00	7.00	-122.00	-62.00	8128.00	8103.00
	2.00	46.00	-146.00	-46.00	8128.00	8103.00
	15.00	72.00	-163.00	-46.00	8128.00	8103.00
	23.00	85.00	-118.00	-18.00	8128.00	8103.00
	-3.00	67.00	9.00	29.00	8128.00	8103.00
	-6.00	26.00	141.00	86.00	8128.00	8103.00
	-10.00	-1.00	121.00	135.00	8129.00	8104.00
	-44.00	-25.00	71.00	113.00	8128.00	8103.00
	-65.00	-41.00	71.00	73.00	8128.00	8103.00
	-69.00	-32.00	37.00	6.00	8129.00	8104.00
	-60.00	-11.00	-8.00	-13.00	8128.00	8103.00
	-28.00	22.00	40.00	-32.00	8129.00	8103.00
	-29.00	7.00	31.00	-34.00	8129.00	8104.00
	17.00	-25.00	32.00	-4.00	8129.00	8103.00
	48.00	20.00	5.00	15.00	8127.00	8103.00
	125.00	40.00	18.00	40.00	8127.00	8103.00
	172.00	32.00	156.00	34.00	8128.00	8104.00
	153.00	54.00	251.00	19.00	8128.00	8104.00
	144.00	73.00	154.00	24.00	8128.00	8104.00
	63.00	52.00	74.00	14.00	8128.00	8104.00
	-151.00	-2.00	-12.00	18.00	8128.00	8104.00
	-260.00	-26.00	-76.00	3.00	8128.00	8104.00
	-227.00	-54.00	-78.00	-10.00	8129.00	8104.00
	-95.00	-53.00	-122.00	-47.00	8128.00	8104.00
	-4.00	-37.00	-173.00	-70.00	8129.00	8104.00
	21.00	-30.00	-216.00	-74.00	8128.00	8103.00
	-18.00	-32.00	-251.00	-91.00	8128.00	8103.00
	-13.00	-12.00	-301.00	-100.00	8128.00	8104.00
	33.00	23.00	-304.00	-131.00	8128.00	8103.00
	115.00	31.00	-291.00	-184.00	8128.00	8103.00
	118.00	-5.00	-227.00	-190.00	8128.00	8104.00
	13.00	26.00	-129.00	-159.00	8128.00	8103.00
	13.00	132.00	-12.00	-178.00	8128.00	8104.00
	33.00	153.00	-52.00	-139.00	8128.00	8103.00
	138.00	157.00	-62.00	-72.00	8129.00	8104.00
	223.00	152.00	-81.00	-106.00	8129.00	8103.00
	238.00	112.00	12.00	-89.00	8129.00	8103.00
	253.00	44.00	55.00	-13.00	8128.00	8103.00
	269.00	-31.00	96.00	107.00	8128.00	8103.00
	198.00	-127.00	107.00	251.00	8129.00	8103.00
	124.00	-211.00	168.00	352.00	8130.00	8104.00
	35.00	-238.00	235.00	392.00	8130.00	8104.00
	-58.00	-230.00	222.00	373.00	8129.00	8104.00
	-84.00	-196.00	306.00	336.00	8129.00	8103.00
	-112.00	-168.00	490.00	357.00	8129.00	8103.00
	-147.00	-142.00	477.00	302.00	8129.00	8104.00
	-121.00	-113.00	391.00	218.00	8129.00	8103.00
	-153.00	-91.00	200.00	147.00	8128.00	8103.00
	-221.00	-24.00	18.00	43.00	8129.00	8104.00
	-237.00	55.00	-116.00	-46.00	8129.00	8104.00
	-239.00	118.00	-207.00	-107.00	8129.00	8103.00
	-208.00	116.00	-215.00	-128.00	8129.00	8104.00
	-155.00	104.00	-79.00	-123.00	8128.00	8103.00
	-53.00	94.00	110.00	-123.00	8129.00	8104.00
	36.00	67.00	184.00	-124.00	8128.00	8103.00
	74.00	28.00	194.00	-78.00	8128.00	8104.00
	83.00	-4.00	101.00	-34.00	8129.00	8103.00
	68.00	-31.00	73.00	-2.00	8128.00	8103.00
	29.00	-13.00	101.00	-27.00	8129.00	8104.00
	-23.00	13.00	55.00	-69.00	8129.00	8104.00
	-27.00	38.00	66.00	-129.00	8128.00	8104.00
	-13.00	32.00	37.00	-140.00	8128.00	8103.00
	-16.00	31.00	-33.00	-137.00	8128.00	8103.00
	-9.00	24.00	-79.00	-118.00	8128.00	8104.00
	32.00	-3.00	-137.00	-51.00	8129.00	8104.00
	37.00	3.00	-165.00	-31.00	8129.00	8104.00
	49.00	-39.00	-146.00	-7.00	8129.00	8104.00
	40.00	-72.00	-121.00	-36.00	8129.00	8104.00
	15.00	-64.00	-136.00	-104.00	8129.00	8104.00
	-4.00	-37.00	-189.00	-138.00	8128.00	8103.00
	-109.00	-11.00	-226.00	-152.00	8128.00	8104.00
	-125.00	12.00	-238.00	-119.00	8129.00	8104.00
	-48.00	64.00	-209.00	-89.00	8128.00	8104.00
	25.00	81.00	-191.00	-54.00	8129.00	8103.00
	42.00	80.00	-136.00	-1.00	8129.00	8104.00
	36.00	70.00	32.00	53.00	8128.00	8103.00
	57.00	71.00	106.00	76.00	8127.00	8103.00
	54.00	40.00	97.00	102.00	8129.00	8104.00
	-23.00	10.00	61.00	115.00	8128.00	8104.00
	-53.00	16.00	-79.00	42.00	8128.00	8103.00
	-43.00	-15.00	-146.00	-85.00	8128.00	8103.00
	-41.00	-14.00	-193.00	-183.00	8128.00	8104.00
	9.00	-24.00	-213.00	-187.00	8128.00	8104.00
	84.00	-68.00	-212.00	-124.00	8128.00	8103.00
	24.00	-77.00	-212.00	-55.00	8128.00	8103.00
	6.00	-37.00	-195.00	16.00	8128.00	8104.00
	5.00	-9.00	-174.00	79.00	8128.00	8103.00
	44.00	49.00	-104.00	125.00	8129.00	8104.00
	20.00	78.00	27.00	169.00	8129.00	8104.00
	-63.00	91.00	162.00	169.00	8129.00	8104.00
	-79.00	117.00	209.00	124.00	8128.00	8104.00
	-30.00	92.00	295.00	98.00	8129.00	8104.00
	-40.00	29.00	271.00	51.00	8128.00	8103.00
	8.00	-50.00	107.00	44.00	8129.00	8104.00
	49.00	-115.00	20.00	42.00	8128.00	8103.00
	75.00	-108.00	-13.00	30.00	8129.00	8104.00
	127.00	-82.00	48.00	20.00	8128.00	8104.00
	172.00	-44.00	232.00	24.00	8128.00	8104.00
	187.00	-30.00	408.00	66.00	8129.00	8104.00
	163.00	-48.00	388.00	113.00	8129.00	8104.00
	128.00	-65.00	448.00	121.00	8129.00	8104.00
	77.00	-67.00	414.00	118.00	8128.00	8103.00
	53.00	-51.00	260.00	102.00	8129.00	8104.00
	24.00	-18.00	123.00	83.00	8129.00	8104.00
	-23.00	8.00	17.00	82.00	8128.00	8104.00
	-104.00	31.00	-43.00	32.00	8128.00	8104.00
	-146.00	54.00	-96.00	3.00	8128.00	8104.00
	-156.00	89.00	-155.00	-46.00	8129.00	8104.00
	-131.00	116.00	-189.00	-103.00	8128.00	8103.00
	-91.00	112.00	-208.00	-121.00	8128.00	8103.00
	-72.00	72.00	-236.00	-120.00	8127.00	8103.00
	-87.00	42.00	-246.00	-124.00	8128.00	8103.00
	-51.00	32.00	-232.00	-165.00	8128.00	8103.00
	41.00	24.00	-186.00	-179.00	8127.00	8103.00
	40.00	-29.00	-191.00	-153.00	8128.00	8104.00
	15.00	-56.00	-200.00	-174.00	8129.00	8104.00
	29.00	-73.00	-171.00	-158.00	8128.00	8103.00
	58.00	-93.00	-122.00	-160.00	8129.00	8104.00
	41.00	-133.00	-90.00	-122.00	8129.00	8104.00
	58.00	-137.00	-29.00	-38.00	8128.00	8103.00
	30.00	-109.00	-55.00	43.00	8128.00	8104.00
	4.00	-74.00	-88.00	96.00	8128.00	8103.00
	12.00	-56.00	-69.00	141.00	8129.00	8104.00
	-14.00	-55.00	-23.00	151.00	8129.00	8104.00
	-42.00	-73.00	137.00	168.00	8128.00	8103.00
	-125.00	-75.00	226.00	154.00	8128.00	8103.00
	-101.00	-92.00	234.00	166.00	8129.00	8104.00
	-68.00	-57.00	175.00	185.00	8129.00	8103.00
	-112.00	-26.00	122.00	158.00	8129.00	8104.00
	-83.00	-8.00	29.00	142.00	8129.00	8103.00
	-49.00	25.00	-8.00	43.00	8129.00	8104.00
	7.00	50.00	-60.00	-64.00	8129.00	8104.00
	19.00	91.00	-125.00	-135.00	8129.00	8104.00
	12.00	125.00	-138.00	-178.00	8129.00	8104.00
	-8.00	105.00	-126.00	-156.00	8128.00	8104.00
	-114.00	77.00	-105.00	-157.00	8128.00	8103.00
	-141.00	65.00	8.00	-176.00	8129.00	8104.00
	-10.00	72.00	59.00	-149.00	8128.00	8103.00
	114.00	92.00	127.00	-84.00	8130.00	8105.00
	161.00	113.00	87.00	-5.00	8129.00	8104.00
	74.00	151.00	-65.00	26.00	8129.00	8104.00
	-54.00	131.00	-78.00	42.00	8127.00	8103.00
	-52.00	118.00	-53.00	39.00	8128.00	8103.00
	-5.00	89.00	1.00	60.00	8128.00	8104.00
	19.00	-8.00	209.00	96.00	8128.00	8104.00
	35.00	-71.00	261.00	134.00	8129.00	8104.00
	30.00	-108.00	202.00	133.00	8129.00	8104.00
	-5.00	-103.00	255.00	123.00	8128.00	8103.00
	-5.00	-67.00	214.00	94.00	8128.00	8103.00
	33.00	-41.00	117.00	67.00	8127.00	8102.00
	68.00	-20.00	85.00	66.00	8128.00	8103.00
	88.00	10.00	59.00	44.00	8128.00	8103.00
	87.00	50.00	24.00	-22.00	8128.00	8103.00
	80.00	59.00	-10.00	-129.00	8128.00	8103.00
	-8.00	46.00	-93.00	-204.00	8128.00	8104.00
	32.00	-10.00	-219.00	-263.00	8128.00	8103.00
	51.00	-50.00	-302.00	-310.00	8127.00	8103.00
	51.00	-71.00	-343.00	-335.00	8127.00	8103.00
	39.00	-87.00	-401.00	-240.00	8129.00	8104.00
	24.00	-75.00	-465.00	-107.00	8128.00	8103.00
	75.00	-53.00	-518.00	10.00	8128.00	8104.00
	105.00	-6.00	-536.00	72.00	8128.00	8103.00
	111.00	12.00	-504.00	135.00	8128.00	8103.00
	140.00	4.00	-309.00	225.00	8128.00	8104.00
	100.00	-17.00	-44.00	305.00	8130.00	8104.00
	46.00	-42.00	497.00	340.00	8129.00	8104.00
	-10.00	-65.00	1011.00	366.00	8129.00	8104.00
	-22.00	-74.00	737.00	341.00	8129.00	8104.00
	-79.00	-36.00	555.00	243.00	8129.00	8104.00
	-196.00	-7.00	495.00	116.00	8129.00	8104.00
	-183.00	19.00	379.00	6.00	8128.00	8103.00
	-127.00	23.00	315.00	-48.00	8129.00	8103.00
	-96.00	-13.00	272.00	-88.00	8130.00	8104.00
	-91.00	-58.00	203.00	-65.00	8129.00	8104.00
	-105.00	-68.00	142.00	-42.00	8129.00	8104.00
	-135.00	-51.00	76.00	-67.00	8128.00	8103.00
	-130.00	-41.00	-42.00	-124.00	8128.00	8103.00
	-75.00	-16.00	-215.00	-176.00	8128.00	8103.00
	-73.00	-18.00	-383.00	-226.00	8128.00	8104.00
	-15.00	27.00	-427.00	-274.00	8129.00	8104.00
	47.00	42.00	-431.00	-339.00	8129.00	8104.00
	49.00	23.00	-448.00	-350.00	8128.00	8104.00
	21.00	61.00	-479.00	-287.00	8128.00	8104.00
	-4.00	131.00	-496.00	-204.00	8129.00	8104.00
	-17.00	187.00	-491.00	-107.00	8128.00	8103.00
	10.00	255.00	-406.00	5.00	8128.00	8104.00
	-47.00	223.00	-190.00	125.00	8127.00	8103.00
	-16.00	116.00	286.00	245.00	8128.00	8103.00
	-30.00	9.00	718.00	351.00	8129.00	8103.00
	9.00	-81.00	637.00	390.00	8128.00	8103.00
	18.00	-162.00	595.00	383.00	8129.00	8104.00
	7.00	-228.00	422.00	337.00	8128.00	8102.00
	-2.00	-247.00	276.00	247.00	8128.00	8103.00
	27.00	-240.00	172.00	151.00	8128.00	8103.00
	63.00	-163.00	105.00	24.00	8128.00	8104.00
	83.00	-123.00	54.00	-55.00	8128.00	8103.00
	56.00	-81.00	20.00	-89.00	8129.00	8104.00
	44.00	-27.00	4.00	-121.00	8128.00	8103.00
	66.00	-6.00	-25.00	-152.00	8129.00	8104.00
	72.00	9.00	-40.00	-161.00	8129.00	8104.00
	82.00	49.00	-49.00	-182.00	8129.00	8104.00
	69.00	77.00	-80.00	-156.00	8129.00	8104.00
	45.00	87.00	-159.00	-162.00	8128.00	8103.00
	-25.00	97.00	-226.00	-143.00	8129.00	8104.00
	-5.00	77.00	-268.00	-122.00	8128.00	8103.00
	-39.00	24.00	-290.00	-128.00	8128.00	8104.00
	-74.00	-65.00	-290.00	-150.00	8129.00	8104.00
	-52.00	-96.00	-276.00	-133.00	8128.00	8103.00
	-16.00	-68.00	-190.00	-44.00	8129.00	8104.00
	45.00	18.00	-92.00	43.00	8128.00	8104.00
	62.00	125.00	-37.00	130.00	8128.00	8104.00
	40.00	209.00	-69.00	143.00	8128.00	8103.00
	-2.00	223.00	-61.00	146.00	8128.00	8104.00
	-95.00	228.00	-26.00	116.00	8129.00	8104.00
	-117.00	159.00	13.00	87.00	8128.00	8103.00
	-99.00	97.00	57.00	90.00	8129.00	8104.00
	-130.00	53.00	56.00	67.00	8128.00	8103.00
	-42.00	27.00	90.00	61.00	8129.00	8104.00
	64.00	-25.00	130.00	17.00	8128.00	8104.00
	81.00	-117.00	163.00	-8.00	8129.00	8104.00
	104.00	-141.00	135.00	-11.00	8129.00	8104.00
	96.00	-128.00	120.00	34.00	8128.00	8104.00
	79.00	-108.00	55.00	35.00	8128.00	8103.00
	29.00	-78.00	-103.00	29.00	8128.00	8104.00
	-33.00	-74.00	-113.00	-3.00	8128.00	8103.00
	-16.00	-31.00	-126.00	-70.00	8129.00	8103.00
	24.00	38.00	-47.00	-71.00	8129.00	8104.00
	58.00	71.00	-84.00	-97.00	8128.00	8104.00
	-16.00	58.00	-176.00	-150.00	8128.00	8104.00
	-96.00	-49.00	-223.00	-141.00	8128.00	8103.00
	-182.00	-79.00	-266.00	-123.00	8128.00	8103.00
	-136.00	-72.00	-265.00	-114.00	8129.00	8104.00
	-86.00	-9.00	-228.00	-97.00	8128.00	8103.00
	35.00	72.00	-135.00	-72.00	8127.00	8102.00
	116.00	95.00	-79.00	-61.00	8128.00	8103.00
	186.00	74.00	218.00	-12.00	8129.00	8104.00
	192.00	6.00	523.00	39.00	8128.00	8103.00
	139.00	-90.00	480.00	110.00	8130.00	8105.00
	106.00	-143.00	388.00	158.00	8128.00	8103.00
	76.00	-166.00	309.00	199.00	8128.00	8103.00
	12.00	-177.00	244.00	192.00	8128.00	8103.00
	-48.00	-129.00	232.00	206.00	8128.00	8104.00
	-70.00	-50.00	385.00	241.00	8129.00	8104.00
	-133.00	-17.00	469.00	263.00	8128.00	8102.00
	-126.00	14.00	304.00	255.00	8129.00	8103.00
	-98.00	33.00	268.00	211.00	8129.00	8104.00
	-85.00	26.00	258.00	109.00	8129.00	8104.00
	-86.00	53.00	150.00	21.00	8128.00	8103.00
	-39.00	68.00	9.00	-79.00	8128.00	8103.00
	91.00	87.00	-150.00	-132.00	8129.00	8105.00
	157.00	137.00	-244.00	-142.00	8130.00	8105.00
	233.00	139.00	-309.00	-136.00	8128.00	8103.00
	166.00	60.00	-354.00	-124.00	8128.00	8104.00
	52.00	-2.00	-404.00	-158.00	8128.00	8104.00
	19.00	-84.00	-444.00	-165.00	8128.00	8103.00
	34.00	-98.00	-380.00	-161.00	8129.00	8103.00
	76.00	-29.00	-326.00	-158.00	8128.00	8104.00
	39.00	37.00	-293.00	-133.00	8129.00	8104.00
	-205.00	72.00	-309.00	-130.00	8129.00	8104.00
	-311.00	73.00	-287.00	-146.00	8128.00	8103.00
	-263.00	54.00	-223.00	-123.00	8128.00	8104.00
	-181.00	23.00	-196.00	-85.00	8129.00	8104.00
	-133.00	-25.00	-149.00	-31.00	8129.00	8104.00
	-87.00	-61.00	66.00	30.00	8128.00	8103.00
	-86.00	-73.00	437.00	89.00	8129.00	8104.00
	-82.00	-90.00	688.00	134.00	8129.00	8104.00
	-54.00	-88.00	748.00	175.00	8129.00	8104.00
	-38.00	-75.00	541.00	196.00	8129.00	8104.00
	-41.00	-48.00	304.00	207.00	8129.00	8104.00
	-8.00	1.00	89.00	164.00	8129.00	8104.00
	26.00	21.00	-35.00	45.00	8129.00	8104.00
	24.00	31.00	-171.00	-104.00	8128.00	8103.00
	10.00	20.00	-279.00	-173.00	8129.00	8104.00
	56.00	44.00	-365.00	-196.00	8128.00	8103.00
	83.00	73.00	-433.00	-155.00	8129.00	8104.00
	103.00	56.00	-471.00	-86.00	8129.00	8103.00
	39.00	102.00	-442.00	-88.00	8129.00	8104.00
	28.00	109.00	-300.00	-70.00	8129.00	8104.00
	85.00	78.00	40.00	-1.00	8128.00	8103.00
	155.00	30.00	440.00	106.00	8128.00	8103.00
	157.00	-118.00	621.00	242.00	8129.00	8104.00
	18.00	-163.00	493.00	305.00	8130.00	8104.00
	-57.00	-170.00	511.00	300.00	8129.00	8104.00
	-27.00	-131.00	283.00	248.00	8128.00	8103.00
	-56.00	-67.00	116.00	162.00	8128.00	8104.00
	-86.00	-31.00	29.00	90.00	8127.00	8103.00
	-100.00	14.00	-37.00	26.00	8128.00	8103.00
	-69.00	81.00	-73.00	-29.00	8129.00	8104.00
	-6.00	65.00	-92.00	-81.00	8127.00	8102.00
	33.00	-11.00	-106.00	-154.00	8129.00	8104.00
	59.00	-2.00	-83.00	-162.00	8128.00	8103.00
	85.00	-14.00	-25.00	-111.00	8128.00	8103.00
	119.00	-68.00	-19.00	-69.00	8129.00	8104.00
	139.00	-47.00	-132.00	-61.00	8129.00	8104.00
	145.00	9.00	-167.00	-76.00	8128.00	8103.00
	148.00	70.00	-174.00	-103.00	8128.00	8104.00
	125.00	100.00	-183.00	-120.00	8128.00	8103.00
	113.00	111.00	-233.00	-179.00	8130.00	8104.00
	56.00	114.00	-306.00	-266.00	8128.00	8104.00
	11.00	109.00	-274.00	-313.00	8128.00	8104.00
	-77.00	86.00	-161.00	-300.00	8128.00	8104.00
	-130.00	61.00	-216.00	-221.00	8129.00	8104.00
	-72.00	59.00	-281.00	-118.00	8129.00	8104.00
	8.00	1.00	-291.00	6.00	8128.00	8104.00
	97.00	-11.00	-269.00	115.00	8129.00	8104.00
	140.00	6.00	-170.00	191.00	8129.00	8103.00
	89.00	7.00	120.00	273.00	8130.00	8104.00
	-16.00	-27.00	591.00	359.00	8131.00	8104.00
	-42.00	-89.00	727.00	391.00	8130.00	8104.00
	-81.00	-119.00	518.00	340.00	8130.00	8104.00
	-122.00	-129.00	400.00	231.00	8128.00	8103.00
	-158.00	-139.00	283.00	117.00	8128.00	8104.00
	-169.00	-111.00	118.00	30.00	8128.00	8104.00
	-197.00	-70.00	44.00	-16.00	8129.00	8104.00
	-184.00	-34.00	10.00	-46.00	8129.00	8104.00
	-220.00	23.00	-32.00	-77.00	8128.00	8104.00
	-161.00	84.00	-59.00	-114.00	8129.00	8105.00
	-137.00	92.00	-101.00	-139.00	8128.00	8103.00
	-137.00	95.00	-117.00	-143.00	8129.00	8104.00
	-88.00	58.00	-142.00	-133.00	8129.00	8104.00
	8.00	27.00	-160.00	-144.00	8129.00	8105.00
	87.00	10.00	-179.00	-182.00	8128.00	8104.00
	150.00	-10.00	-190.00	-196.00	8128.00	8103.00
	172.00	-34.00	-190.00	-168.00	8128.00	8104.00
	174.00	-101.00	-165.00	-120.00	8127.00	8103.00
	160.00	-161.00	-100.00	-48.00	8127.00	8102.00
	168.00	-165.00	-10.00	26.00	8128.00	8104.00
	151.00	-174.00	3.00	96.00	8127.00	8103.00
	86.00	-141.00	79.00	137.00	8128.00	8103.00
	38.00	-96.00	141.00	168.00	8128.00	8103.00
	4.00	-50.00	213.00	186.00	8129.00	8103.00
	0.00	40.00	197.00	173.00	8128.00	8103.00
	-26.00	116.00	258.00	162.00	8128.00	8103.00
	-58.00	158.00	211.00	126.00	8129.00	8104.00
	-68.00	153.00	163.00	109.00	8128.00	8103.00
	-103.00	159.00	169.00	77.00	8128.00	8104.00
	-66.00	148.00	144.00	67.00	8127.00	8102.00
	-10.00	117.00	93.00	34.00	8128.00	8103.00
	36.00	73.00	45.00	-27.00	8128.00	8103.00
	59.00	79.00	-39.00	-133.00	8128.00	8103.00
	0.00	80.00	-112.00	-172.00	8129.00	8104.00
	-48.00	33.00	-162.00	-159.00	8130.00	8104.00
	-77.00	-59.00	-194.00	-134.00	8129.00	8104.00
	-106.00	-88.00	-207.00	-104.00	8129.00	8104.00
	-144.00	-98.00	-226.00	-68.00	8129.00	8104.00
	-137.00	-70.00	-247.00	-25.00	8129.00	8103.00
	-64.00	-30.00	-260.00	11.00	8128.00	8103.00
	-3.00	26.00	-251.00	28.00	8128.00	8104.00
	47.00	43.00	-210.00	50.00	8128.00	8103.00
	87.00	29.00	-176.00	88.00	8128.00	8104.00
	144.00	0.00	-131.00	93.00	8128.00	8103.00
	160.00	-47.00	-87.00	65.00	8128.00	8104.00
	150.00	-78.00	53.00	21.00	8129.00	8104.00
	100.00	-115.00	160.00	10.00	8129.00	8104.00
	26.00	-71.00	99.00	-11.00	8129.00	8104.00
	12.00	-16.00	150.00	-19.00	8129.00	8104.00
	40.00	-5.00	287.00	-18.00	8128.00	8104.00
	56.00	17.00	254.00	-31.00	8129.00	8104.00
	58.00	46.00	105.00	-50.00	8128.00	8103.00
	82.00	84.00	133.00	-92.00	8128.00	8103.00
	26.00	98.00	111.00	-128.00	8128.00	8103.00
	-72.00	54.00	-24.00	-133.00	8128.00	8103.00
	-131.00	49.00	-92.00	-95.00	8128.00	8102.00
	-104.00	77.00	-123.00	-78.00	8128.00	8103.00
	-80.00	92.00	-153.00	-106.00	8128.00	8103.00
	-85.00	91.00	-159.00	-97.00	8129.00	8104.00
	-52.00	102.00	-115.00	-54.00	8128.00	8104.00
	-37.00	85.00	-27.00	13.00	8128.00	8104.00
	6.00	12.00	233.00	135.00	8128.00	8104.00
	63.00	-71.00	454.00	253.00	8128.00	8103.00
	-9.00	-146.00	374.00	342.00	8129.00	8103.00
	-136.00	-191.00	250.00	320.00	8130.00	8104.00
	-125.00	-217.00	68.00	230.00	8128.00	8103.00
	-15.00	-210.00	5.00	105.00	8128.00	8103.00
	-30.00	-207.00	-76.00	5.00	8129.00	8104.00
	-3.00	-161.00	-156.00	-45.00	8129.00	8104.00
	86.00	-23.00	-258.00	-124.00	8129.00	8104.00
	140.00	49.00	-303.00	-146.00	8129.00	8104.00
	229.00	72.00	-297.00	-196.00	8129.00	8104.00
	243.00	115.00	-292.00	-268.00	8128.00	8104.00
	159.00	120.00	-254.00	-241.00	8128.00	8104.00
	103.00	61.00	-230.00	-154.00	8129.00	8103.00
	82.00	21.00	-144.00	-40.00	8129.00	8104.00
	20.00	-23.00	-52.00	90.00	8128.00	8103.00
	-39.00	-50.00	18.00	194.00	8129.00	8105.00
	-81.00	-24.00	194.00	220.00	8129.00	8104.00
	-130.00	11.00	306.00	218.00	8130.00	8104.00
	-153.00	23.00	616.00	214.00	8129.00	8104.00
	-136.00	38.00	581.00	181.00	8129.00	8104.00
	-121.00	22.00	419.00	156.00	8128.00	8103.00
	-123.00	-13.00	308.00	125.00	8128.00	8103.00
	-117.00	-30.00	214.00	44.00	8128.00	8103.00
	-92.00	-27.00	135.00	-29.00	8129.00	8104.00
	-75.00	-43.00	38.00	-93.00	8127.00	8103.00
	-33.00	-55.00	-35.00	-132.00	8128.00	8103.00
	16.00	-25.00	-81.00	-128.00	8128.00	8103.00
	-15.00	3.00	-116.00	-121.00	8127.00	8102.00
	24.00	14.00	-161.00	-128.00	8128.00	8102.00
	71.00	50.00	-224.00	-177.00	8128.00	8103.00
	91.00	105.00	-244.00	-243.00	8128.00	8104.00
	87.00	127.00	-261.00	-308.00	8128.00	8103.00
	61.00	95.00	-272.00	-300.00	8127.00	8103.00
	-3.00	55.00	-278.00	-224.00	8128.00	8103.00
	-91.00	-23.00	-289.00	-139.00	8128.00	8103.00
	-143.00	-66.00	-302.00	-55.00	8128.00	8104.00
	-205.00	-77.00	-323.00	3.00	8128.00	8104.00
	-158.00	-62.00	-296.00	62.00	8128.00	8104.00
	-140.00	-43.00	-147.00	140.00	8128.00	8104.00
	-63.00	-36.00	111.00	220.00	8128.00	8103.00
	30.00	-25.00	245.00	314.00	8130.00	8104.00
	101.00	-53.00	308.00	342.00	8129.00	8104.00
	147.00	-87.00	349.00	319.00	8129.00	8104.00
	118.00	-85.00	282.00	224.00	8129.00	8103.00
	90.00	-62.00	283.00	106.00	8128.00	8103.00
	68.00	-49.00	236.00	3.00	8129.00	8104.00
	73.00	-19.00	129.00	-51.00	8128.00	8103.00
	132.00	37.00	30.00	-47.00	8128.00	8104.00
	141.00	125.00	-40.00	-86.00	8129.00	8104.00
	149.00	190.00	-75.00	-172.00	8128.00	8104.00
	74.00	163.00	-146.00	-214.00	8128.00	8103.00
	-41.00	135.00	-187.00	-210.00	8127.00	8103.00
	-15.00	154.00	-203.00	-201.00	8128.00	8103.00
	84.00	147.00	-250.00	-253.00	8128.00	8104.00
	90.00	134.00	-288.00	-224.00	8128.00	8104.00
	-149.00	63.00	-283.00	-147.00	8128.00	8103.00
	-312.00	9.00	-234.00	-99.00	8127.00	8103.00
	-248.00	-71.00	-187.00	-10.00	8128.00	8103.00
	-58.00	-152.00	-148.00	90.00	8128.00	8103.00
	83.00	-168.00	-118.00	182.00	8128.00	8103.00
	153.00	-146.00	-78.00	195.00	8128.00	8103.00
	137.00	-133.00	19.00	171.00	8128.00	8103.00
	83.00	-143.00	306.00	166.00	8129.00	8104.00
	26.00	-129.00	419.00	168.00	8128.00	8103.00
	30.00	-161.00	485.00	206.00	8129.00	8103.00
	85.00	-220.00	476.00	243.00	8128.00	8103.00
	49.00	-226.00	568.00	237.00	8128.00	8104.00
	-42.00	-110.00	432.00	212.00	8129.00	8104.00
	-52.00	58.00	273.00	126.00	8128.00	8103.00
	4.00	153.00	196.00	72.00	8128.00	8103.00
	41.00	151.00	117.00	32.00	8129.00	8104.00
	22.00	119.00	64.00	9.00	8127.00	8103.00
	-8.00	95.00	22.00	-29.00	8128.00	8104.00
	-30.00	75.00	-13.00	-61.00	8129.00	8104.00
	-49.00	37.00	-35.00	-60.00	8130.00	8105.00
	-75.00	3.00	-42.00	-48.00	8128.00	8103.00
	-52.00	32.00	-64.00	-47.00	8129.00	8104.00
	-20.00	51.00	-123.00	-66.00	8128.00	8103.00
	-2.00	-5.00	-194.00	-85.00	8129.00	8104.00
	23.00	-14.00	-238.00	-107.00	8129.00	8104.00
	42.00	41.00	-259.00	-131.00	8128.00	8104.00
	60.00	101.00	-281.00	-146.00	8129.00	8104.00
	60.00	108.00	-301.00	-133.00	8129.00	8104.00
	10.00	149.00	-306.00	-126.00	8128.00	8103.00
	-38.00	154.00	-309.00	-132.00	8129.00	8104.00
	-57.00	135.00	-287.00	-129.00	8129.00	8104.00
	-21.00	108.00	-255.00	-132.00	8128.00	8103.00
	39.00	70.00	-174.00	-111.00	8129.00	8105.00
	14.00	37.00	-62.00	-87.00	8128.00	8104.00
	-6.00	-2.00	-6.00	-45.00	8129.00	8104.00
	-59.00	-134.00	-16.00	10.00	8128.00	8103.00
	-86.00	-191.00	44.00	7.00	8128.00	8104.00
	-99.00	-184.00	158.00	31.00	8128.00	8104.00
	-105.00	-162.00	249.00	90.00	8128.00	8104.00
	-110.00	-90.00	280.00	111.00	8127.00	8103.00
	-118.00	-11.00	281.00	94.00	8128.00	8103.00
	-89.00	27.00	162.00	60.00	8128.00	8103.00
	-35.00	17.00	24.00	62.00	8128.00	8104.00
	-10.00	-38.00	-54.00	23.00	8127.00	8103.00
	-47.00	-65.00	-118.00	-18.00	8129.00	8104.00
	-126.00	-40.00	-166.00	-62.00	8128.00	8103.00
	-145.00	46.00	-275.00	-135.00	8128.00	8103.00
	-51.00	72.00	-403.00	-219.00	8128.00	8103.00
	94.00	79.00	-415.00	-401.00	8127.00	8103.00
	118.00	57.00	-381.00	-372.00	8128.00	8104.00
	6.00	1.00	-363.00	-213.00	8128.00	8103.00
	-22.00	-67.00	-359.00	-64.00	8128.00	8103.00
	75.00	-55.00	-223.00	61.00	8128.00	8104.00
	178.00	-42.00	73.00	255.00	8129.00	8104.00
	237.00	-26.00	359.00	400.00	8130.00	8104.00
	227.00	13.00	581.00	471.00	8129.00	8104.00
	197.00	5.00	963.00	472.00	8129.00	8103.00
	184.00	-78.00	704.00	440.00	8130.00	8105.00
	157.00	-107.00	486.00	377.00	8130.00	8104.00
	29.00	-136.00	452.00	290.00	8129.00	8104.00
	-78.00	-183.00	517.00	235.00	8129.00	8104.00
	-102.00	-173.00	501.00	199.00	8128.00	8104.00
	-93.00	-110.00	426.00	123.00	8129.00	8104.00
	-59.00	-90.00	267.00	91.00	8129.00	8104.00
	-31.00	-38.00	67.00	24.00	8128.00	8104.00
	-30.00	39.00	-79.00	-91.00	8128.00	8103.00
	-23.00	78.00	-174.00	-164.00	8129.00	8104.00
	5.00	65.00	-255.00	-203.00	8129.00	8104.00
	69.00	35.00	-343.00	-197.00	8128.00	8103.00
	103.00	5.00	-422.00	-252.00	8129.00	8104.00
	78.00	-41.00	-494.00	-301.00	8128.00	8104.00
	-13.00	5.00	-568.00	-337.00	8128.00	8104.00
	-182.00	91.00	-590.00	-328.00	8128.00	8104.00
	-176.00	206.00	-524.00	-312.00	8128.00	8104.00
	-77.00	359.00	-345.00	-278.00	8127.00	8103.00
	88.00	407.00	-118.00	-211.00	8128.00	8104.00
	83.00	310.00	163.00	-134.00	8129.00	8103.00
	-52.00	165.00	247.00	-34.00	8128.00	8103.00
	-251.00	60.00	208.00	55.00	8128.00	8103.00
	-237.00	-21.00	130.00	171.00	8129.00	8104.00
	-114.00	-89.00	170.00	246.00	8129.00	8103.00
	-39.00	-131.00	216.00	262.00	8128.00	8102.00
	-21.00	-175.00	206.00	239.00	8129.00	8104.00
	-23.00	-143.00	347.00	234.00	8128.00	8103.00
	-17.00	-129.00	355.00	222.00	8129.00	8104.00
	2.00	-91.00	262.00	156.00	8129.00	8103.00
	28.00	-72.00	75.00	100.00	8128.00	8103.00
	-10.00	-24.00	-62.00	-17.00	8129.00	8104.00
	12.00	21.00	-102.00	-211.00	8129.00	8104.00
	61.00	48.00	-157.00	-283.00	8128.00	8104.00
	44.00	27.00	-233.00	-272.00	8128.00	8104.00
	110.00	-11.00	-281.00	-218.00	8128.00	8104.00
	156.00	-42.00	-303.00	-163.00	8128.00	8104.00
	125.00	-66.00	-324.00	-106.00	8129.00	8104.00
	108.00	-52.00	-321.00	-93.00	8129.00	8104.00
	88.00	-17.00	-188.00	-117.00	8129.00	8104.00
	38.00	-62.00	49.00	-66.00	8129.00	8104.00
	-144.00	-97.00	266.00	39.00	8128.00	8104.00
	-231.00	-144.00	237.00	134.00	8129.00	8104.00
	-229.00	-119.00	97.00	124.00	8128.00	8103.00
	-127.00	-17.00	-62.00	54.00	8128.00	8104.00
	-13.00	59.00	-117.00	-40.00	8128.00	8103.00
	-3.00	89.00	-122.00	-20.00	8129.00	8104.00
	52.00	115.00	-136.00	37.00	8128.00	8104.00
	100.00	98.00	-121.00	62.00	8128.00	8104.00
	144.00	52.00	-95.00	89.00	8127.00	8103.00
	164.00	-12.00	-27.00	141.00	8128.00	8103.00
	125.00	-59.00	2.00	182.00	8128.00	8103.00
	60.00	-62.00	151.00	179.00	8127.00	8102.00
	61.00	-6.00	346.00	174.00	8128.00	8103.00
	84.00	-4.00	446.00	180.00	8128.00	8103.00
	138.00	29.00	407.00	177.00	8128.00	8103.00
	155.00	83.00	118.00	103.00	8128.00	8103.00
	105.00	107.00	36.00	-75.00	8128.00	8103.00
	144.00	109.00	10.00	-243.00	8128.00	8104.00
	77.00	150.00	-186.00	-381.00	8128.00	8104.00
	-198.00	141.00	-272.00	-375.00	8127.00	8103.00
	-342.00	60.00	-393.00	-255.00	8128.00	8103.00
	-196.00	-14.00	-504.00	-129.00	8129.00	8104.00
	-16.00	-124.00	-539.00	-37.00	8129.00	8104.00
	37.00	-204.00	-479.00	44.00	8128.00	8104.00
	52.00	-220.00	-172.00	121.00	8128.00	8103.00
	104.00	-214.00	197.00	180.00	8128.00	8104.00
	101.00	-186.00	673.00	246.00	8129.00	8104.00
	87.00	-185.00	912.00	310.00	8129.00	8103.00
	25.00	-144.00	762.00	351.00	8130.00	8104.00
	-88.00	-77.00	478.00	259.00	8129.00	8104.00
	-146.00	-1.00	261.00	156.00	8129.00	8103.00
	-209.00	51.00	121.00	42.00	8129.00	8104.00
	-286.00	40.00	-3.00	-19.00	8129.00	8104.00
	-222.00	40.00	-94.00	-54.00	8129.00	8104.00
	-109.00	42.00	-175.00	-90.00	8129.00	8104.00
	-10.00	66.00	-248.00	-134.00	8129.00	8105.00
	23.00	119.00	-281.00	-195.00	8129.00	8104.00
	72.00	163.00	-283.00	-210.00	8128.00	8104.00
	63.00	136.00	-189.00	-186.00	8128.00	8104.00
	41.00	46.00	-69.00	-133.00	8129.00	8104.00
	-14.00	26.00	179.00	-58.00	8129.00	8104.00
	-62.00	31.00	236.00	6.00	8128.00	8104.00
	-69.00	29.00	153.00	58.00	8128.00	8104.00
	-75.00	65.00	106.00	49.00	8129.00	8104.00
	-20.00	108.00	60.00	46.00	8129.00	8104.00
	10.00	115.00	-133.00	6.00	8128.00	8104.00
	20.00	31.00	-239.00	-40.00	8129.00	8104.00
	62.00	-6.00	-272.00	-91.00	8129.00	8104.00
	65.00	-35.00	-262.00	-142.00	8129.00	8104.00
	-19.00	-14.00	-229.00	-164.00	8128.00	8103.00
	-154.00	-11.00	-192.00	-138.00	8128.00	8104.00
	-230.00	-11.00	-154.00	-87.00	8128.00	8103.00
	-132.00	33.00	-133.00	-49.00	8128.00	8103.00
	52.00	54.00	-105.00	-16.00	8129.00	8103.00
	188.00	40.00	-24.00	4.00	8127.00	8103.00
	216.00	-7.00	89.00	28.00	8127.00	8102.00
	209.00	-34.00	146.00	34.00	8127.00	8103.00
	184.00	-71.00	175.00	37.00	8128.00	8103.00
	187.00	-113.00	127.00	55.00	8128.00	8104.00
	172.00	-118.00	88.00	68.00	8128.00	8103.00
	119.00	-90.00	133.00	71.00	8128.00	8104.00
	60.00	-92.00	137.00	70.00	8128.00	8104.00
	14.00	-106.00	86.00	59.00	8128.00	8103.00
	-23.00	-65.00	100.00	57.00	8129.00	8104.00
	-84.00	-22.00	45.00	79.00	8128.00	8104.00
	-118.00	-41.00	-11.00	70.00	8129.00	8104.00
	-80.00	-121.00	-73.00	23.00	8129.00	8104.00
	-19.00	-117.00	-145.00	-77.00	8129.00	8104.00
	-15.00	-65.00	-199.00	-172.00	8128.00	8103.00
	-9.00	-20.00	-213.00	-151.00	8128.00	8103.00
	-4.00	72.00	-212.00	-127.00	8128.00	8103.00
	15.00	156.00	-239.00	-62.00	8128.00	8104.00
	73.00	226.00	-255.00	-8.00	8129.00	8103.00
	85.00	227.00	-232.00	48.00	8128.00	8104.00
	67.00	190.00	-114.00	73.00	8129.00	8104.00
	57.00	124.00	119.00	94.00	8128.00	8104.00
	53.00	57.00	240.00	116.00	8128.00	8103.00
	44.00	16.00	397.00	118.00	8128.00	8103.00
	21.00	21.00	361.00	108.00	8129.00	8104.00
	12.00	35.00	362.00	107.00	8129.00	8104.00
	-46.00	4.00	213.00	82.00	8129.00	8104.00
	-129.00	-46.00	134.00	36.00	8128.00	8104.00
	-183.00	-108.00	75.00	-2.00	8129.00	8104.00
	-169.00	-94.00	2.00	-24.00	8129.00	8103.00
	-186.00	-86.00	-23.00	-17.00	8128.00	8103.00
	-157.00	-62.00	-41.00	-29.00	8129.00	8104.00
	-121.00	-48.00	-56.00	-51.00	8128.00	8104.00
	-49.00	-35.00	-52.00	-63.00	8128.00	8104.00
	13.00	-26.00	-60.00	-75.00	8128.00	8103.00
	19.00	28.00	-53.00	-76.00	8128.00	8103.00
	10.00	8.00	-45.00	-46.00	8129.00	8103.00
	-36.00	-55.00	-55.00	-9.00	8128.00	8103.00
	-53.00	-91.00	-51.00	13.00	8127.00	8103.00
	-52.00	-89.00	-44.00	-4.00	8128.00	8103.00
	-10.00	-68.00	-57.00	-34.00	8128.00	8103.00
	28.00	-26.00	-74.00	-61.00	8128.00	8103.00
	60.00	24.00	-91.00	-63.00	8129.00	8104.00
	-14.00	55.00	-81.00	-33.00	8128.00	8103.00
	-16.00	43.00	-48.00	27.00	8128.00	8103.00
	142.00	4.00	-28.00	77.00	8129.00	8104.00
	195.00	-18.00	-15.00	83.00	8129.00	8104.00
	174.00	-52.00	-16.00	77.00	8129.00	8104.00
	130.00	-92.00	-38.00	48.00	8128.00	8104.00
	53.00	-91.00	-79.00	-11.00	8129.00	8104.00
	5.00	30.00	-119.00	-149.00	8129.00	8104.00
	-41.00	120.00	-128.00	-233.00	8128.00	8104.00
	-40.00	138.00	-151.00	-232.00	8128.00	8104.00
	-32.00	88.00	-185.00	-164.00	8129.00	8104.00
	-104.00	2.00	-178.00	-86.00	8129.00	8104.00
	-132.00	-49.00	-147.00	-7.00	8129.00	8104.00
	-118.00	-43.00	-56.00	47.00	8128.00	8104.00
	-63.00	26.00	76.00	70.00	8128.00	8104.00
	-110.00	66.00	265.00	125.00	8129.00	8104.00
	-138.00	50.00	358.00	214.00	8128.00	8103.00
	-59.00	108.00	276.00	245.00	8129.00	8104.00
	135.00	125.00	68.00	200.00	8128.00	8104.00
	233.00	135.00	-12.00	72.00	8128.00	8103.00
	228.00	91.00	-102.00	-65.00	8129.00	8104.00
	167.00	65.00	-212.00	-152.00	8128.00	8103.00
	58.00	-39.00	-207.00	-193.00	8128.00	8104.00
	25.00	-122.00	-179.00	-128.00	8128.00	8104.00
	76.00	-135.00	-178.00	-50.00	8129.00	8104.00
	23.00	-160.00	-95.00	78.00	8128.00	8103.00
	-39.00	-158.00	-71.00	169.00	8128.00	8103.00
	-27.00	-112.00	6.00	121.00	8128.00	8103.00
	-5.00	-52.00	459.00	88.00	8127.00	8103.00
	-100.00	9.00	766.00	73.00	8128.00	8103.00
