MegaWin ASCII file

[DEFINITIONS]
ChannelCount=8
DataType=1
SamplingFreq=1000.000000
FirstSampleTime=0.001000
PhaseName=Raw Dynamic 15/12/2017 10:51:49


[COMMENT]



[SOURCE NAMES]
Quadriceps femoris muscle - rectus femoris
Quadriceps femoris muscle - rectus femoris
Quadriceps femoris muscle - rectus femoris
Quadriceps femoris muscle - rectus femoris
Quadriceps femoris muscle - vastus lateralis
Quadriceps femoris muscle - vastus lateralis


[SIDE INFO]
R
R
R
R
R
R


[UNITS]
uV
uV
uV
uV
uV
uV






[DATA]
	-36.00	-215.00	-80.00	-54.00	8140.00	8114.00
	-40.00	-166.00	-166.00	28.00	8139.00	8114.00
	-58.00	-62.00	-137.00	46.00	8137.00	8112.00
	-219.00	42.00	-28.00	126.00	8136.00	8110.00
	-264.00	95.00	74.00	257.00	8136.00	8110.00
	-215.00	38.00	163.00	363.00	8136.00	8110.00
	-204.00	-59.00	156.00	348.00	8135.00	8109.00
	-221.00	-93.00	146.00	250.00	8134.00	8107.00
	-168.00	-60.00	181.00	144.00	8133.00	8108.00
	-84.00	-6.00	194.00	92.00	8133.00	8108.00
	-55.00	41.00	138.00	-28.00	8132.00	8107.00
	-22.00	26.00	92.00	-89.00	8132.00	8107.00
	3.00	-19.00	68.00	-115.00	8132.00	8106.00
	4.00	-24.00	40.00	-127.00	8132.00	8107.00
	47.00	3.00	16.00	-130.00	8132.00	8107.00
	171.00	83.00	-56.00	-135.00	8132.00	8106.00
	120.00	116.00	-84.00	-161.00	8131.00	8106.00
	31.00	149.00	-151.00	-221.00	8131.00	8107.00
	47.00	95.00	-281.00	-233.00	8131.00	8106.00
	37.00	-8.00	-340.00	-176.00	8130.00	8105.00
	230.00	-77.00	-284.00	-90.00	8131.00	8106.00
	255.00	-64.00	-205.00	-60.00	8130.00	8105.00
	20.00	-46.00	-282.00	-31.00	8130.00	8105.00
	-106.00	-116.00	-160.00	69.00	8130.00	8105.00
	-93.00	-130.00	-2.00	152.00	8130.00	8105.00
	-45.00	-150.00	149.00	190.00	8130.00	8105.00
	-16.00	-146.00	323.00	282.00	8130.00	8104.00
	6.00	-199.00	268.00	296.00	8131.00	8105.00
	5.00	-195.00	148.00	226.00	8130.00	8105.00
	34.00	-152.00	93.00	175.00	8129.00	8104.00
	-5.00	-83.00	62.00	120.00	8129.00	8104.00
	-53.00	18.00	168.00	19.00	8128.00	8104.00
	-90.00	88.00	271.00	-35.00	8129.00	8104.00
	-79.00	137.00	222.00	-80.00	8129.00	8104.00
	-43.00	165.00	77.00	-93.00	8128.00	8103.00
	-65.00	179.00	23.00	-90.00	8129.00	8103.00
	-75.00	203.00	-28.00	-78.00	8128.00	8103.00
	-43.00	211.00	-140.00	-79.00	8128.00	8103.00
	-15.00	218.00	-176.00	-107.00	8128.00	8102.00
	20.00	214.00	-202.00	-169.00	8127.00	8102.00
	15.00	206.00	-259.00	-253.00	8127.00	8103.00
	22.00	141.00	-299.00	-255.00	8127.00	8103.00
	58.00	-44.00	-83.00	-168.00	8127.00	8103.00
	68.00	-131.00	61.00	-52.00	8127.00	8102.00
	104.00	-96.00	-42.00	26.00	8127.00	8103.00
	44.00	-50.00	-96.00	92.00	8128.00	8103.00
	-165.00	-44.00	65.00	114.00	8127.00	8103.00
	-237.00	-24.00	175.00	61.00	8127.00	8102.00
	-170.00	-58.00	83.00	28.00	8127.00	8101.00
	-73.00	-49.00	0.00	31.00	8127.00	8102.00
	-26.00	5.00	4.00	65.00	8127.00	8102.00
	5.00	-19.00	109.00	74.00	8128.00	8103.00
	70.00	-43.00	77.00	84.00	8127.00	8102.00
	153.00	-23.00	34.00	72.00	8127.00	8102.00
	158.00	-17.00	16.00	58.00	8127.00	8103.00
	103.00	-15.00	96.00	13.00	8127.00	8102.00
	121.00	-22.00	151.00	-19.00	8128.00	8103.00
	190.00	-54.00	71.00	-33.00	8127.00	8102.00
	195.00	-29.00	-36.00	-14.00	8128.00	8103.00
	153.00	-39.00	-84.00	-11.00	8128.00	8103.00
	82.00	-62.00	-81.00	-26.00	8127.00	8102.00
	53.00	-13.00	-78.00	-25.00	8127.00	8102.00
	46.00	35.00	-96.00	-198.00	8127.00	8103.00
	19.00	112.00	-124.00	-285.00	8128.00	8103.00
	-52.00	136.00	-112.00	-282.00	8128.00	8103.00
	81.00	-69.00	-233.00	-234.00	8128.00	8103.00
	106.00	-250.00	-358.00	-6.00	8128.00	8103.00
	18.00	-342.00	-391.00	143.00	8127.00	8102.00
	40.00	-271.00	-288.00	140.00	8128.00	8103.00
	162.00	-201.00	-61.00	-63.00	8129.00	8104.00
	308.00	33.00	9.00	-152.00	8128.00	8103.00
	265.00	170.00	-41.00	-92.00	8129.00	8104.00
	100.00	191.00	27.00	178.00	8129.00	8104.00
	-74.00	174.00	339.00	505.00	8129.00	8103.00
	-281.00	168.00	359.00	631.00	8129.00	8104.00
	-398.00	140.00	559.00	613.00	8128.00	8103.00
	-427.00	58.00	522.00	518.00	8127.00	8102.00
	-427.00	7.00	409.00	316.00	8128.00	8103.00
	-371.00	-11.00	315.00	105.00	8128.00	8103.00
	-253.00	-57.00	241.00	-15.00	8129.00	8104.00
	-197.00	-48.00	182.00	-102.00	8129.00	8104.00
	-183.00	11.00	76.00	-195.00	8128.00	8103.00
	-120.00	50.00	-23.00	-291.00	8128.00	8104.00
	-58.00	77.00	-163.00	-358.00	8127.00	8103.00
	-24.00	80.00	-336.00	-421.00	8127.00	8103.00
	112.00	58.00	-469.00	-405.00	8127.00	8103.00
	248.00	20.00	-339.00	-401.00	8127.00	8103.00
	193.00	-3.00	-299.00	-288.00	8127.00	8103.00
	26.00	-64.00	-170.00	-169.00	8128.00	8103.00
	-137.00	-70.00	21.00	-39.00	8128.00	8103.00
	-136.00	-107.00	154.00	169.00	8128.00	8104.00
	-34.00	-159.00	286.00	415.00	8129.00	8103.00
	49.00	-199.00	359.00	391.00	8130.00	8104.00
	52.00	-192.00	168.00	259.00	8130.00	8104.00
	-11.00	-148.00	24.00	123.00	8128.00	8103.00
	0.00	-37.00	-52.00	14.00	8128.00	8103.00
	8.00	43.00	-68.00	-58.00	8128.00	8103.00
	-46.00	99.00	-65.00	-92.00	8129.00	8104.00
	-240.00	127.00	67.00	-106.00	8128.00	8103.00
	-185.00	104.00	157.00	-86.00	8128.00	8103.00
	-2.00	62.00	8.00	-60.00	8129.00	8104.00
	121.00	-110.00	-46.00	17.00	8128.00	8103.00
	201.00	-176.00	31.00	60.00	8127.00	8103.00
	111.00	-166.00	-16.00	73.00	8128.00	8103.00
	98.00	-124.00	-79.00	61.00	8128.00	8103.00
	134.00	-50.00	-121.00	-26.00	8129.00	8104.00
	200.00	69.00	-141.00	-171.00	8128.00	8103.00
	254.00	120.00	-108.00	-191.00	8128.00	8102.00
	271.00	154.00	-85.00	-113.00	8127.00	8102.00
	209.00	232.00	-94.00	-94.00	8127.00	8102.00
	125.00	355.00	-117.00	-151.00	8128.00	8103.00
	158.00	434.00	-167.00	-223.00	8128.00	8103.00
	214.00	428.00	-256.00	-336.00	8128.00	8104.00
	262.00	345.00	-468.00	-490.00	8126.00	8103.00
	404.00	442.00	-467.00	-499.00	8127.00	8103.00
	291.00	260.00	-380.00	-359.00	8127.00	8103.00
	-2.00	59.00	-652.00	-87.00	8128.00	8104.00
	117.00	39.00	-824.00	81.00	8128.00	8103.00
	244.00	-131.00	-646.00	142.00	8128.00	8103.00
	71.00	-388.00	-295.00	262.00	8129.00	8103.00
	-101.00	-463.00	479.00	494.00	8130.00	8103.00
	-244.00	-617.00	1074.00	808.00	8129.00	8104.00
	-425.00	-729.00	972.00	968.00	8129.00	8103.00
	-539.00	-623.00	773.00	777.00	8129.00	8103.00
	-679.00	-376.00	680.00	384.00	8130.00	8104.00
	-609.00	-68.00	439.00	41.00	8128.00	8104.00
	-275.00	169.00	249.00	-107.00	8128.00	8104.00
	-208.00	292.00	92.00	-243.00	8127.00	8103.00
	-123.00	344.00	-2.00	-465.00	8127.00	8103.00
	-38.00	274.00	-240.00	-574.00	8129.00	8104.00
	-116.00	240.00	-187.00	-466.00	8127.00	8104.00
	-371.00	185.00	159.00	-127.00	8128.00	8103.00
	-315.00	77.00	453.00	140.00	8128.00	8103.00
	-174.00	-61.00	414.00	219.00	8128.00	8103.00
	-11.00	-245.00	258.00	230.00	8129.00	8103.00
	117.00	-349.00	237.00	340.00	8129.00	8103.00
	236.00	-453.00	48.00	314.00	8129.00	8104.00
	238.00	-514.00	-151.00	-64.00	8129.00	8103.00
	72.00	-546.00	-229.00	-200.00	8128.00	8104.00
	46.00	-474.00	-240.00	-275.00	8127.00	8103.00
	216.00	-235.00	17.00	-418.00	8128.00	8104.00
	370.00	-17.00	129.00	-406.00	8127.00	8104.00
	362.00	221.00	222.00	-187.00	8128.00	8103.00
	187.00	294.00	204.00	55.00	8127.00	8103.00
	90.00	259.00	123.00	205.00	8129.00	8104.00
	143.00	218.00	211.00	331.00	8129.00	8104.00
	134.00	151.00	21.00	487.00	8129.00	8103.00
	-30.00	106.00	-372.00	561.00	8128.00	8103.00
	-154.00	211.00	-343.00	500.00	8129.00	8103.00
	-126.00	295.00	-331.00	151.00	8129.00	8103.00
	-37.00	363.00	-381.00	-156.00	8128.00	8103.00
	52.00	436.00	-160.00	-409.00	8127.00	8103.00
	113.00	472.00	-217.00	-388.00	8127.00	8103.00
	125.00	480.00	-566.00	-274.00	8127.00	8103.00
	222.00	516.00	-466.00	-281.00	8127.00	8103.00
	179.00	364.00	-377.00	-265.00	8127.00	8103.00
	249.00	190.00	-69.00	-159.00	8128.00	8104.00
	205.00	32.00	127.00	-63.00	8128.00	8103.00
	160.00	-69.00	377.00	-140.00	8128.00	8104.00
	-21.00	-116.00	182.00	-22.00	8128.00	8103.00
	-120.00	-155.00	43.00	107.00	8128.00	8104.00
	-188.00	-209.00	-96.00	145.00	8129.00	8104.00
	-230.00	-232.00	-164.00	120.00	8128.00	8104.00
	-241.00	-317.00	18.00	243.00	8128.00	8103.00
	-264.00	-438.00	88.00	390.00	8129.00	8103.00
	-321.00	-488.00	299.00	395.00	8130.00	8104.00
	-398.00	-471.00	377.00	268.00	8128.00	8103.00
	-413.00	-405.00	467.00	70.00	8128.00	8103.00
	-426.00	-252.00	167.00	-86.00	8128.00	8103.00
	-194.00	-142.00	-70.00	-259.00	8127.00	8103.00
	68.00	74.00	-147.00	-568.00	8128.00	8103.00
	269.00	284.00	-117.00	-738.00	8127.00	8103.00
	350.00	282.00	-195.00	-588.00	8128.00	8103.00
	308.00	255.00	-14.00	-365.00	8127.00	8103.00
	243.00	196.00	40.00	-75.00	8129.00	8104.00
	266.00	177.00	345.00	274.00	8129.00	8103.00
	292.00	99.00	411.00	524.00	8128.00	8103.00
	156.00	34.00	118.00	477.00	8128.00	8102.00
	-4.00	-10.00	74.00	294.00	8129.00	8104.00
	-120.00	-29.00	-6.00	131.00	8128.00	8103.00
	-225.00	-146.00	-59.00	101.00	8128.00	8103.00
	-248.00	-144.00	-91.00	98.00	8128.00	8103.00
	-431.00	-122.00	-94.00	82.00	8128.00	8103.00
	-535.00	-21.00	-139.00	32.00	8128.00	8103.00
	-226.00	50.00	-217.00	-2.00	8128.00	8102.00
	8.00	-92.00	-175.00	-76.00	8128.00	8103.00
	160.00	-197.00	-242.00	-144.00	8128.00	8103.00
	184.00	-114.00	-269.00	-215.00	8128.00	8103.00
	165.00	-40.00	-278.00	-280.00	8126.00	8102.00
	172.00	-11.00	-177.00	-148.00	8127.00	8103.00
	161.00	78.00	-261.00	-32.00	8128.00	8103.00
	158.00	154.00	-407.00	-54.00	8128.00	8103.00
	172.00	232.00	-205.00	-118.00	8128.00	8103.00
	69.00	267.00	-300.00	-114.00	8128.00	8103.00
	-61.00	178.00	26.00	-81.00	8128.00	8103.00
	42.00	134.00	46.00	7.00	8128.00	8104.00
	214.00	24.00	220.00	94.00	8128.00	8103.00
	383.00	-121.00	201.00	254.00	8128.00	8103.00
	250.00	-253.00	125.00	251.00	8128.00	8103.00
	7.00	-259.00	330.00	177.00	8128.00	8103.00
	-70.00	-236.00	363.00	173.00	8129.00	8103.00
	-46.00	-245.00	133.00	293.00	8129.00	8104.00
	14.00	-153.00	-68.00	193.00	8128.00	8104.00
	64.00	-51.00	-34.00	-37.00	8128.00	8103.00
	118.00	64.00	-116.00	-335.00	8128.00	8103.00
	135.00	164.00	-121.00	-434.00	8127.00	8103.00
	20.00	218.00	135.00	-400.00	8126.00	8103.00
	-222.00	196.00	334.00	-242.00	8128.00	8104.00
	-350.00	175.00	423.00	-80.00	8129.00	8104.00
	-321.00	206.00	400.00	60.00	8128.00	8104.00
	-279.00	168.00	179.00	163.00	8128.00	8103.00
	-168.00	68.00	-76.00	118.00	8128.00	8103.00
	25.00	24.00	-279.00	101.00	8130.00	8105.00
	214.00	-46.00	-466.00	64.00	8129.00	8104.00
	227.00	-122.00	-537.00	-128.00	8128.00	8103.00
	266.00	-50.00	-489.00	-171.00	8129.00	8104.00
	192.00	109.00	-224.00	-196.00	8128.00	8103.00
	15.00	141.00	57.00	-147.00	8129.00	8104.00
	-110.00	151.00	323.00	18.00	8128.00	8103.00
	-91.00	159.00	223.00	113.00	8129.00	8104.00
	-74.00	163.00	318.00	-23.00	8128.00	8103.00
	-172.00	69.00	137.00	-48.00	8128.00	8103.00
	-421.00	35.00	9.00	-6.00	8129.00	8104.00
	-178.00	-192.00	41.00	112.00	8128.00	8104.00
	-172.00	-419.00	-101.00	162.00	8128.00	8103.00
	-227.00	-440.00	-116.00	161.00	8129.00	8103.00
	-146.00	-279.00	51.00	143.00	8129.00	8104.00
	-95.00	-156.00	35.00	238.00	8128.00	8103.00
	101.00	-32.00	-76.00	367.00	8129.00	8103.00
	253.00	55.00	-99.00	285.00	8129.00	8103.00
	287.00	100.00	-203.00	11.00	8128.00	8103.00
	331.00	40.00	-253.00	-219.00	8128.00	8103.00
	114.00	60.00	99.00	-146.00	8129.00	8104.00
	-16.00	-3.00	841.00	-10.00	8129.00	8104.00
	-140.00	-172.00	726.00	180.00	8129.00	8104.00
	-317.00	-295.00	405.00	359.00	8130.00	8104.00
	-305.00	-301.00	293.00	389.00	8129.00	8103.00
	-229.00	-246.00	96.00	168.00	8129.00	8104.00
	58.00	-155.00	-16.00	2.00	8128.00	8103.00
	359.00	-19.00	-155.00	-6.00	8128.00	8102.00
	514.00	173.00	-233.00	7.00	8128.00	8104.00
	576.00	249.00	-361.00	-191.00	8129.00	8103.00
	332.00	257.00	-243.00	-405.00	8126.00	8102.00
	64.00	70.00	-253.00	-460.00	8127.00	8104.00
	-88.00	107.00	-446.00	-556.00	8128.00	8103.00
	-41.00	29.00	-425.00	-418.00	8127.00	8103.00
	53.00	78.00	-75.00	-218.00	8128.00	8103.00
	-34.00	143.00	-123.00	97.00	8127.00	8103.00
	8.00	237.00	-353.00	223.00	8128.00	8103.00
	76.00	338.00	-452.00	53.00	8128.00	8103.00
	-198.00	185.00	-292.00	-193.00	8128.00	8104.00
	-458.00	2.00	332.00	-173.00	8128.00	8103.00
	-707.00	-280.00	754.00	-25.00	8128.00	8103.00
	-697.00	-302.00	814.00	199.00	8129.00	8103.00
	-354.00	-190.00	819.00	257.00	8128.00	8103.00
	-137.00	-6.00	409.00	244.00	8128.00	8103.00
	91.00	128.00	212.00	358.00	8129.00	8103.00
	280.00	207.00	69.00	276.00	8129.00	8103.00
	399.00	165.00	-43.00	59.00	8127.00	8103.00
	343.00	132.00	-90.00	-40.00	8128.00	8103.00
	293.00	75.00	-130.00	29.00	8127.00	8103.00
	248.00	-68.00	-239.00	-19.00	8128.00	8102.00
	285.00	-148.00	-348.00	-228.00	8128.00	8103.00
	177.00	-13.00	-427.00	-320.00	8127.00	8103.00
	8.00	64.00	-437.00	-329.00	8126.00	8103.00
	-254.00	21.00	-203.00	-136.00	8128.00	8104.00
	-309.00	-41.00	-43.00	111.00	8128.00	8103.00
	-204.00	-12.00	302.00	289.00	8128.00	8103.00
	-128.00	-113.00	341.00	520.00	8128.00	8103.00
	-61.00	-220.00	219.00	429.00	8128.00	8102.00
	-48.00	-137.00	195.00	216.00	8128.00	8103.00
	-46.00	-97.00	225.00	-69.00	8128.00	8102.00
	53.00	-34.00	257.00	-277.00	8128.00	8104.00
	64.00	-5.00	74.00	-414.00	8127.00	8103.00
	58.00	17.00	-202.00	-428.00	8127.00	8103.00
	48.00	-86.00	-175.00	-342.00	8127.00	8103.00
	202.00	-217.00	-203.00	-179.00	8128.00	8103.00
	456.00	-131.00	-316.00	-61.00	8127.00	8102.00
	574.00	-92.00	-449.00	-21.00	8128.00	8103.00
	161.00	-39.00	-556.00	-172.00	8129.00	8104.00
	-137.00	76.00	-483.00	-130.00	8128.00	8103.00
	-236.00	215.00	-595.00	-242.00	8127.00	8103.00
	-136.00	327.00	-353.00	-311.00	8127.00	8104.00
	-82.00	173.00	278.00	-197.00	8128.00	8104.00
	-82.00	-165.00	411.00	297.00	8129.00	8103.00
	-47.00	-323.00	464.00	785.00	8129.00	8104.00
	-71.00	-357.00	304.00	829.00	8128.00	8102.00
	-4.00	-335.00	172.00	612.00	8128.00	8103.00
	-93.00	-74.00	196.00	267.00	8129.00	8104.00
	-256.00	205.00	56.00	47.00	8128.00	8103.00
	-206.00	335.00	-122.00	-47.00	8129.00	8104.00
	-47.00	251.00	204.00	7.00	8128.00	8104.00
	9.00	116.00	320.00	140.00	8129.00	8104.00
	1.00	102.00	23.00	97.00	8128.00	8104.00
	-34.00	40.00	187.00	-49.00	8128.00	8103.00
	-169.00	112.00	111.00	-154.00	8128.00	8103.00
	-349.00	224.00	-96.00	-272.00	8128.00	8103.00
	-250.00	336.00	-89.00	-274.00	8128.00	8104.00
	-74.00	396.00	-42.00	-301.00	8127.00	8104.00
	81.00	406.00	-227.00	-380.00	8127.00	8104.00
	261.00	369.00	-255.00	-453.00	8126.00	8103.00
	398.00	201.00	-390.00	-535.00	8128.00	8103.00
	434.00	108.00	-246.00	-454.00	8126.00	8103.00
	309.00	-24.00	63.00	-247.00	8128.00	8103.00
	202.00	-219.00	571.00	-35.00	8128.00	8103.00
	147.00	-296.00	265.00	287.00	8130.00	8104.00
	76.00	-165.00	16.00	299.00	8129.00	8103.00
	119.00	-32.00	-196.00	181.00	8128.00	8103.00
	36.00	-30.00	-170.00	3.00	8128.00	8103.00
	-87.00	-267.00	-194.00	47.00	8127.00	8103.00
	-91.00	-536.00	-145.00	230.00	8128.00	8103.00
	-113.00	-809.00	-142.00	478.00	8130.00	8104.00
	-596.00	-615.00	90.00	566.00	8128.00	8103.00
	-720.00	-409.00	230.00	403.00	8128.00	8102.00
	-379.00	-114.00	304.00	148.00	8128.00	8103.00
	54.00	90.00	230.00	19.00	8127.00	8102.00
	245.00	24.00	218.00	213.00	8128.00	8103.00
	241.00	-159.00	313.00	323.00	8129.00	8103.00
	135.00	-175.00	206.00	267.00	8129.00	8103.00
	25.00	-59.00	-15.00	25.00	8128.00	8103.00
	-10.00	165.00	-148.00	-156.00	8128.00	8103.00
	12.00	365.00	-212.00	-253.00	8127.00	8103.00
	-86.00	462.00	-198.00	-374.00	8127.00	8103.00
	-99.00	451.00	-243.00	-374.00	8127.00	8103.00
	-37.00	273.00	-201.00	-336.00	8127.00	8103.00
	-22.00	161.00	-107.00	-268.00	8128.00	8103.00
	58.00	143.00	168.00	-267.00	8127.00	8103.00
	111.00	7.00	448.00	-238.00	8128.00	8103.00
	208.00	-196.00	143.00	-119.00	8128.00	8103.00
	316.00	-292.00	-47.00	-43.00	8128.00	8103.00
	283.00	-323.00	-62.00	-34.00	8129.00	8103.00
	197.00	-201.00	-118.00	65.00	8128.00	8103.00
	-38.00	-34.00	-273.00	351.00	8130.00	8104.00
	-101.00	-14.00	-224.00	413.00	8128.00	8103.00
	-31.00	58.00	-45.00	239.00	8128.00	8103.00
	106.00	175.00	60.00	116.00	8128.00	8102.00
	70.00	154.00	44.00	1.00	8128.00	8102.00
	-181.00	170.00	-97.00	-83.00	8128.00	8103.00
	-287.00	364.00	-384.00	-288.00	8127.00	8103.00
	101.00	441.00	-420.00	-514.00	8126.00	8103.00
	400.00	384.00	-530.00	-417.00	8126.00	8103.00
	-255.00	345.00	-668.00	-378.00	8127.00	8104.00
	-491.00	220.00	-32.00	-279.00	8127.00	8103.00
	-79.00	74.00	631.00	-128.00	8128.00	8103.00
	188.00	-45.00	753.00	136.00	8129.00	8104.00
	154.00	-153.00	418.00	566.00	8128.00	8103.00
	0.00	-275.00	269.00	825.00	8129.00	8103.00
	-148.00	-324.00	17.00	612.00	8129.00	8104.00
	-60.00	-376.00	-67.00	71.00	8127.00	8103.00
	1.00	-499.00	-163.00	-231.00	8127.00	8103.00
	-65.00	-433.00	-12.00	-272.00	8127.00	8103.00
	-14.00	-182.00	424.00	-421.00	8126.00	8103.00
	69.00	127.00	630.00	-450.00	8127.00	8103.00
	8.00	216.00	434.00	-59.00	8127.00	8102.00
	-261.00	112.00	245.00	274.00	8129.00	8103.00
	-183.00	-46.00	146.00	420.00	8129.00	8103.00
	4.00	-89.00	65.00	533.00	8128.00	8103.00
	95.00	-57.00	-100.00	494.00	8130.00	8104.00
	116.00	79.00	-245.00	277.00	8129.00	8104.00
	110.00	151.00	-158.00	173.00	8128.00	8103.00
	150.00	178.00	-189.00	-1.00	8129.00	8104.00
	193.00	150.00	-185.00	-103.00	8128.00	8103.00
	18.00	-43.00	-195.00	-119.00	8128.00	8103.00
	-65.00	-309.00	-142.00	-90.00	8129.00	8103.00
	-141.00	-363.00	-124.00	-196.00	8129.00	8104.00
	-59.00	-217.00	-19.00	-304.00	8128.00	8103.00
	64.00	-22.00	-68.00	-361.00	8127.00	8103.00
	165.00	100.00	-228.00	-304.00	8127.00	8103.00
	132.00	135.00	-335.00	-116.00	8129.00	8104.00
	8.00	133.00	-449.00	-207.00	8128.00	8104.00
	3.00	80.00	-530.00	-334.00	8127.00	8103.00
	-78.00	-60.00	-168.00	-301.00	8127.00	8102.00
	-552.00	-148.00	727.00	-22.00	8128.00	8104.00
	-787.00	-144.00	712.00	270.00	8129.00	8104.00
	-528.00	35.00	576.00	467.00	8129.00	8103.00
	-135.00	204.00	311.00	442.00	8129.00	8103.00
	217.00	267.00	6.00	67.00	8129.00	8104.00
	495.00	293.00	-194.00	-340.00	8128.00	8104.00
	669.00	150.00	-295.00	-350.00	8127.00	8104.00
	466.00	26.00	-299.00	-314.00	8128.00	8103.00
	290.00	-90.00	-202.00	-154.00	8128.00	8103.00
	235.00	-112.00	421.00	94.00	8128.00	8103.00
	99.00	-63.00	249.00	346.00	8129.00	8103.00
	31.00	-38.00	272.00	524.00	8128.00	8103.00
	-9.00	-5.00	40.00	489.00	8129.00	8103.00
	-41.00	-9.00	-195.00	329.00	8129.00	8103.00
	-48.00	3.00	-306.00	133.00	8128.00	8103.00
	61.00	72.00	-348.00	217.00	8128.00	8103.00
	82.00	26.00	-280.00	187.00	8128.00	8103.00
	-139.00	107.00	3.00	-143.00	8128.00	8103.00
	-294.00	213.00	90.00	-511.00	8126.00	8103.00
	-313.00	306.00	231.00	-589.00	8128.00	8103.00
	-160.00	249.00	68.00	-366.00	8127.00	8103.00
	-16.00	-91.00	-159.00	-107.00	8128.00	8103.00
	-45.00	-340.00	13.00	28.00	8128.00	8103.00
	-300.00	-624.00	-34.00	198.00	8128.00	8103.00
	-319.00	-598.00	4.00	311.00	8128.00	8103.00
	-214.00	-449.00	91.00	192.00	8128.00	8103.00
	-101.00	-139.00	228.00	3.00	8127.00	8103.00
	5.00	111.00	218.00	-164.00	8127.00	8103.00
	21.00	271.00	-199.00	-73.00	8128.00	8103.00
	-71.00	279.00	-337.00	71.00	8128.00	8103.00
	148.00	239.00	-306.00	-93.00	8128.00	8103.00
	381.00	186.00	18.00	-53.00	8128.00	8103.00
	317.00	77.00	367.00	65.00	8127.00	8103.00
	310.00	-32.00	359.00	152.00	8128.00	8103.00
	278.00	18.00	265.00	112.00	8127.00	8103.00
	332.00	174.00	-73.00	-71.00	8129.00	8104.00
	301.00	265.00	-376.00	-304.00	8128.00	8103.00
	88.00	136.00	-552.00	-513.00	8126.00	8103.00
	-283.00	-22.00	-253.00	-497.00	8127.00	8103.00
	-211.00	-207.00	120.00	-299.00	8128.00	8104.00
	-47.00	-291.00	-381.00	45.00	8128.00	8103.00
	25.00	-241.00	44.00	231.00	8128.00	8103.00
	-50.00	-79.00	301.00	285.00	8128.00	8103.00
	-92.00	118.00	-16.00	175.00	8129.00	8104.00
	-167.00	193.00	-153.00	75.00	8128.00	8103.00
	-176.00	-55.00	240.00	176.00	8129.00	8104.00
	-111.00	-190.00	574.00	355.00	8129.00	8104.00
	-114.00	-43.00	785.00	520.00	8128.00	8103.00
	-134.00	106.00	452.00	547.00	8128.00	8103.00
	-162.00	12.00	189.00	123.00	8128.00	8103.00
	-304.00	-18.00	35.00	-254.00	8128.00	8104.00
	-12.00	18.00	-182.00	-406.00	8127.00	8103.00
	383.00	-44.00	-484.00	-315.00	8128.00	8104.00
	496.00	-153.00	-399.00	-173.00	8128.00	8104.00
	252.00	-116.00	-524.00	7.00	8128.00	8103.00
	41.00	47.00	-569.00	-41.00	8129.00	8104.00
	-42.00	188.00	222.00	-159.00	8128.00	8103.00
	-7.00	189.00	437.00	-47.00	8128.00	8104.00
	-62.00	186.00	343.00	202.00	8129.00	8104.00
	-71.00	61.00	212.00	281.00	8130.00	8104.00
	-125.00	3.00	154.00	182.00	8129.00	8104.00
	-179.00	-42.00	26.00	-1.00	8129.00	8104.00
	-76.00	-37.00	-166.00	-46.00	8128.00	8103.00
	-2.00	-62.00	-408.00	-99.00	8128.00	8103.00
	47.00	-63.00	-591.00	-219.00	8128.00	8103.00
	44.00	-77.00	-611.00	-265.00	8128.00	8103.00
	8.00	-296.00	-450.00	-236.00	8129.00	8104.00
	128.00	-334.00	308.00	-201.00	8128.00	8103.00
	213.00	-188.00	496.00	-68.00	8129.00	8104.00
	-67.00	40.00	469.00	209.00	8129.00	8103.00
	-376.00	185.00	340.00	332.00	8129.00	8103.00
	-381.00	230.00	141.00	132.00	8128.00	8104.00
	-201.00	230.00	109.00	-22.00	8128.00	8103.00
	48.00	159.00	235.00	-8.00	8128.00	8103.00
	153.00	46.00	49.00	147.00	8128.00	8103.00
	89.00	45.00	-200.00	-67.00	8129.00	8104.00
	66.00	117.00	-181.00	-278.00	8127.00	8103.00
	-78.00	139.00	-173.00	-324.00	8127.00	8103.00
	-131.00	49.00	-118.00	-204.00	8128.00	8104.00
	109.00	115.00	-188.00	-4.00	8128.00	8103.00
	307.00	66.00	59.00	48.00	8128.00	8103.00
	254.00	11.00	62.00	150.00	8129.00	8103.00
	20.00	-53.00	-160.00	88.00	8128.00	8103.00
	152.00	-98.00	-125.00	116.00	8128.00	8103.00
	257.00	-161.00	-201.00	212.00	8128.00	8103.00
	196.00	-180.00	-90.00	377.00	8130.00	8104.00
	20.00	-228.00	42.00	352.00	8129.00	8103.00
	-122.00	-201.00	92.00	-7.00	8128.00	8103.00
	-84.00	-81.00	238.00	-143.00	8129.00	8103.00
	-53.00	-145.00	90.00	-10.00	8128.00	8103.00
	-48.00	-151.00	0.00	-106.00	8128.00	8103.00
	-96.00	-35.00	-50.00	-271.00	8127.00	8103.00
	-98.00	62.00	-96.00	-270.00	8127.00	8103.00
	-96.00	246.00	111.00	-153.00	8128.00	8103.00
	-126.00	431.00	338.00	21.00	8128.00	8103.00
	-303.00	317.00	428.00	247.00	8128.00	8103.00
	-349.00	119.00	391.00	147.00	8128.00	8103.00
	-231.00	7.00	-182.00	-49.00	8128.00	8103.00
	-103.00	-79.00	-361.00	-88.00	8128.00	8103.00
	132.00	-145.00	-466.00	-168.00	8128.00	8103.00
	128.00	-87.00	-570.00	-252.00	8128.00	8102.00
	-77.00	6.00	-456.00	-263.00	8128.00	8103.00
	110.00	69.00	-88.00	-233.00	8128.00	8103.00
	339.00	-23.00	356.00	-43.00	8128.00	8103.00
	443.00	-156.00	670.00	350.00	8129.00	8103.00
	380.00	-284.00	532.00	672.00	8128.00	8103.00
	101.00	-209.00	342.00	524.00	8127.00	8102.00
	-110.00	-95.00	171.00	285.00	8128.00	8103.00
	-166.00	-112.00	55.00	155.00	8128.00	8103.00
	-92.00	-87.00	-17.00	113.00	8127.00	8102.00
	88.00	-164.00	-126.00	0.00	8128.00	8102.00
	90.00	-183.00	-96.00	-136.00	8128.00	8103.00
	32.00	-51.00	-96.00	-190.00	8128.00	8103.00
	-7.00	164.00	-211.00	-271.00	8127.00	8103.00
	-28.00	428.00	-145.00	-354.00	8127.00	8102.00
	68.00	488.00	-141.00	-375.00	8126.00	8103.00
	25.00	345.00	-530.00	-399.00	8126.00	8104.00
	-83.00	41.00	-399.00	-324.00	8127.00	8103.00
	-60.00	-68.00	-344.00	-226.00	8127.00	8102.00
	-26.00	27.00	308.00	23.00	8128.00	8104.00
	-15.00	180.00	295.00	128.00	8128.00	8103.00
	-101.00	308.00	228.00	141.00	8127.00	8103.00
	-125.00	276.00	67.00	125.00	8128.00	8103.00
	-209.00	188.00	-91.00	47.00	8127.00	8103.00
	-181.00	-129.00	-16.00	195.00	8128.00	8103.00
	-115.00	-487.00	457.00	398.00	8128.00	8102.00
	-157.00	-611.00	410.00	439.00	8129.00	8103.00
	-468.00	-467.00	203.00	296.00	8129.00	8103.00
	-649.00	-231.00	164.00	75.00	8128.00	8104.00
	-233.00	-116.00	88.00	-8.00	8129.00	8103.00
	340.00	58.00	-83.00	-147.00	8128.00	8103.00
	252.00	134.00	-277.00	-227.00	8128.00	8103.00
	222.00	145.00	-337.00	-244.00	8128.00	8104.00
	199.00	13.00	-185.00	-308.00	8127.00	8103.00
	435.00	-49.00	-254.00	-283.00	8127.00	8103.00
	515.00	-21.00	-494.00	-270.00	8129.00	8105.00
	425.00	-180.00	-364.00	-19.00	8129.00	8103.00
	310.00	-253.00	-341.00	273.00	8129.00	8103.00
	147.00	-227.00	-307.00	362.00	8129.00	8103.00
	40.00	-190.00	123.00	329.00	8128.00	8102.00
	-109.00	-131.00	724.00	408.00	8129.00	8104.00
	-219.00	100.00	747.00	289.00	8129.00	8103.00
	-259.00	361.00	354.00	-24.00	8129.00	8104.00
	-161.00	416.00	164.00	-242.00	8128.00	8104.00
	79.00	289.00	-46.00	-270.00	8128.00	8103.00
	153.00	226.00	-102.00	-245.00	8128.00	8103.00
	163.00	253.00	51.00	-291.00	8127.00	8104.00
	143.00	353.00	42.00	-350.00	8128.00	8104.00
	13.00	288.00	66.00	-248.00	8129.00	8104.00
	-6.00	324.00	43.00	91.00	8128.00	8104.00
	-63.00	392.00	-423.00	128.00	8128.00	8104.00
	-68.00	355.00	-529.00	-97.00	8129.00	8104.00
	-28.00	146.00	-276.00	-284.00	8128.00	8104.00
	13.00	-10.00	-382.00	-396.00	8127.00	8103.00
	-166.00	-119.00	-407.00	-307.00	8128.00	8104.00
	-475.00	-497.00	-103.00	-198.00	8128.00	8103.00
	-320.00	-834.00	312.00	-9.00	8129.00	8104.00
	-165.00	-953.00	461.00	453.00	8130.00	8104.00
	-73.00	-765.00	934.00	1038.00	8128.00	8104.00
	-102.00	-471.00	707.00	1108.00	8129.00	8103.00
	-291.00	-86.00	338.00	567.00	8128.00	8103.00
	-325.00	158.00	96.00	66.00	8128.00	8104.00
	-25.00	313.00	-95.00	-97.00	8128.00	8103.00
	237.00	169.00	-273.00	-151.00	8128.00	8103.00
	282.00	4.00	-202.00	-240.00	8129.00	8104.00
	59.00	-117.00	-175.00	-195.00	8129.00	8104.00
	-191.00	-21.00	-189.00	-165.00	8128.00	8103.00
	3.00	161.00	-156.00	-40.00	8128.00	8103.00
	226.00	297.00	-47.00	113.00	8128.00	8104.00
	256.00	281.00	-102.00	136.00	8127.00	8103.00
	146.00	233.00	-167.00	-199.00	8129.00	8104.00
	141.00	324.00	-210.00	-490.00	8127.00	8103.00
	198.00	357.00	-304.00	-480.00	8127.00	8103.00
	83.00	388.00	-477.00	-457.00	8127.00	8103.00
	-82.00	277.00	-514.00	-379.00	8127.00	8103.00
	5.00	71.00	-116.00	-97.00	8128.00	8103.00
	224.00	-160.00	75.00	153.00	8129.00	8103.00
	207.00	-275.00	672.00	272.00	8128.00	8103.00
	177.00	-314.00	866.00	414.00	8129.00	8103.00
	-18.00	-283.00	704.00	483.00	8128.00	8102.00
	-49.00	-248.00	311.00	366.00	8128.00	8102.00
	-25.00	-368.00	85.00	230.00	8128.00	8103.00
	-144.00	-467.00	-37.00	191.00	8128.00	8103.00
	-170.00	-496.00	-51.00	77.00	8128.00	8103.00
	-97.00	-245.00	-98.00	65.00	8128.00	8103.00
	-123.00	38.00	32.00	-45.00	8128.00	8103.00
	-113.00	318.00	-7.00	-190.00	8128.00	8103.00
	-356.00	436.00	-267.00	-274.00	8128.00	8103.00
	-290.00	352.00	-367.00	-294.00	8127.00	8103.00
	-16.00	180.00	-92.00	-216.00	8128.00	8103.00
	164.00	-45.00	-130.00	-56.00	8128.00	8103.00
	28.00	-158.00	231.00	79.00	8127.00	8103.00
	-52.00	-134.00	295.00	-51.00	8128.00	8103.00
	89.00	15.00	20.00	-184.00	8128.00	8103.00
	166.00	168.00	-121.00	-192.00	8128.00	8104.00
	103.00	161.00	-127.00	-82.00	8128.00	8103.00
	62.00	127.00	-23.00	53.00	8128.00	8104.00
	-2.00	115.00	-19.00	225.00	8128.00	8103.00
	-21.00	107.00	73.00	212.00	8128.00	8104.00
	69.00	149.00	-256.00	-56.00	8128.00	8103.00
	192.00	130.00	-451.00	-344.00	8127.00	8103.00
	216.00	126.00	-487.00	-473.00	8127.00	8103.00
	98.00	104.00	-224.00	-434.00	8127.00	8103.00
	-10.00	-16.00	89.00	-180.00	8129.00	8104.00
	-105.00	-42.00	391.00	90.00	8129.00	8104.00
	-73.00	25.00	818.00	492.00	8130.00	8104.00
	1.00	24.00	588.00	666.00	8129.00	8103.00
	101.00	49.00	199.00	413.00	8130.00	8104.00
	189.00	-3.00	91.00	172.00	8129.00	8104.00
	67.00	-15.00	-152.00	203.00	8129.00	8104.00
	-101.00	-95.00	-178.00	271.00	8129.00	8104.00
	-75.00	-207.00	-206.00	168.00	8128.00	8103.00
	-88.00	-223.00	-210.00	18.00	8128.00	8103.00
	-186.00	-164.00	-224.00	-90.00	8129.00	8104.00
	-273.00	-164.00	-354.00	-144.00	8129.00	8104.00
	-262.00	-172.00	-401.00	-76.00	8128.00	8103.00
	-196.00	-267.00	-461.00	-167.00	8128.00	8103.00
	-157.00	-265.00	-372.00	-234.00	8127.00	8103.00
	-21.00	-209.00	-359.00	-196.00	8128.00	8103.00
	232.00	-105.00	311.00	-164.00	8128.00	8103.00
	321.00	-136.00	636.00	-61.00	8129.00	8103.00
	252.00	-101.00	426.00	-10.00	8129.00	8103.00
	177.00	142.00	112.00	-38.00	8128.00	8103.00
	-315.00	277.00	-32.00	19.00	8127.00	8103.00
	-504.00	105.00	-73.00	36.00	8128.00	8103.00
	-307.00	-79.00	48.00	78.00	8127.00	8103.00
	-193.00	-101.00	226.00	21.00	8128.00	8104.00
	-37.00	-33.00	253.00	2.00	8127.00	8103.00
	152.00	125.00	62.00	-34.00	8129.00	8104.00
	205.00	280.00	89.00	-107.00	8128.00	8103.00
	179.00	269.00	-56.00	-92.00	8129.00	8103.00
	218.00	186.00	-83.00	-55.00	8129.00	8104.00
	292.00	84.00	-36.00	106.00	8128.00	8103.00
	255.00	56.00	61.00	175.00	8128.00	8103.00
	198.00	122.00	250.00	185.00	8128.00	8103.00
	183.00	172.00	366.00	91.00	8128.00	8103.00
	172.00	225.00	220.00	-49.00	8128.00	8103.00
	226.00	107.00	7.00	-36.00	8128.00	8103.00
	10.00	-6.00	-184.00	-68.00	8129.00	8104.00
	-4.00	3.00	-303.00	-121.00	8128.00	8103.00
	71.00	38.00	-368.00	-141.00	8128.00	8103.00
	20.00	22.00	-424.00	-161.00	8128.00	8103.00
	-75.00	12.00	-261.00	-251.00	8128.00	8104.00
	-146.00	78.00	241.00	-249.00	8128.00	8103.00
	-181.00	51.00	197.00	-14.00	8128.00	8103.00
	-170.00	-34.00	193.00	149.00	8128.00	8103.00
	-147.00	-181.00	135.00	209.00	8128.00	8103.00
	-289.00	-348.00	-56.00	21.00	8127.00	8102.00
	-381.00	-288.00	-311.00	-232.00	8127.00	8103.00
	-254.00	-56.00	-413.00	-479.00	8126.00	8102.00
	-250.00	11.00	-483.00	-422.00	8126.00	8103.00
	-419.00	-66.00	-461.00	-146.00	8128.00	8103.00
	-293.00	-43.00	9.00	218.00	8127.00	8102.00
	-101.00	-18.00	297.00	581.00	8128.00	8103.00
	63.00	92.00	342.00	721.00	8128.00	8102.00
	153.00	160.00	424.00	591.00	8128.00	8103.00
	372.00	129.00	309.00	393.00	8128.00	8103.00
	433.00	-88.00	265.00	217.00	8128.00	8103.00
	317.00	-356.00	296.00	132.00	8127.00	8103.00
	77.00	-549.00	298.00	130.00	8128.00	8103.00
	-50.00	-510.00	252.00	50.00	8127.00	8103.00
	-27.00	-222.00	189.00	-67.00	8128.00	8103.00
	92.00	50.00	84.00	-268.00	8128.00	8103.00
	167.00	357.00	-47.00	-471.00	8127.00	8103.00
	136.00	480.00	-152.00	-484.00	8126.00	8102.00
	174.00	493.00	-164.00	-445.00	8126.00	8103.00
	226.00	439.00	-209.00	-308.00	8127.00	8103.00
	227.00	380.00	-495.00	-55.00	8129.00	8104.00
	277.00	381.00	-631.00	130.00	8129.00	8104.00
	183.00	235.00	-884.00	147.00	8128.00	8103.00
	41.00	122.00	-738.00	-93.00	8128.00	8103.00
	-103.00	-25.00	-404.00	-35.00	8128.00	8103.00
	-208.00	-182.00	-265.00	195.00	8129.00	8104.00
	-274.00	-308.00	274.00	253.00	8128.00	8103.00
	-279.00	-396.00	1079.00	158.00	8129.00	8104.00
	-143.00	-413.00	866.00	249.00	8129.00	8104.00
	48.00	-300.00	207.00	307.00	8129.00	8103.00
	-31.00	-457.00	201.00	308.00	8129.00	8104.00
	-70.00	-416.00	276.00	110.00	8128.00	8103.00
	-278.00	-226.00	348.00	-80.00	8128.00	8103.00
	-292.00	-79.00	422.00	-144.00	8129.00	8104.00
	-171.00	126.00	206.00	-177.00	8128.00	8103.00
	-197.00	248.00	2.00	-233.00	8128.00	8104.00
	-151.00	312.00	-123.00	-277.00	8127.00	8103.00
	-125.00	222.00	-175.00	-234.00	8128.00	8103.00
	-30.00	63.00	-221.00	-133.00	8128.00	8104.00
	-45.00	-69.00	-200.00	-54.00	8128.00	8104.00
	-47.00	-53.00	-136.00	-52.00	8129.00	8103.00
	54.00	15.00	-107.00	-108.00	8128.00	8103.00
	155.00	9.00	-146.00	-207.00	8127.00	8102.00
	78.00	4.00	-70.00	-239.00	8128.00	8104.00
	127.00	-46.00	-91.00	-3.00	8129.00	8103.00
	352.00	45.00	-102.00	92.00	8128.00	8103.00
	460.00	132.00	-300.00	152.00	8129.00	8104.00
	412.00	156.00	-237.00	179.00	8129.00	8104.00
	137.00	116.00	118.00	150.00	8129.00	8103.00
	-11.00	32.00	390.00	133.00	8127.00	8102.00
	-22.00	109.00	551.00	209.00	8129.00	8103.00
	-101.00	89.00	315.00	376.00	8129.00	8103.00
	-199.00	35.00	157.00	310.00	8129.00	8103.00
	-155.00	65.00	49.00	92.00	8128.00	8103.00
	-31.00	106.00	-55.00	-50.00	8129.00	8104.00
	122.00	118.00	-131.00	-167.00	8128.00	8103.00
	97.00	75.00	-168.00	-183.00	8128.00	8104.00
	18.00	2.00	-173.00	-198.00	8128.00	8103.00
	-54.00	-58.00	-204.00	-199.00	8127.00	8103.00
	-46.00	-119.00	-171.00	-76.00	8129.00	8104.00
	15.00	-171.00	-70.00	-3.00	8129.00	8103.00
	1.00	-128.00	-175.00	18.00	8127.00	8103.00
	-21.00	34.00	-122.00	-65.00	8128.00	8103.00
	98.00	117.00	-21.00	-159.00	8128.00	8103.00
	298.00	24.00	205.00	-149.00	8128.00	8103.00
	168.00	-17.00	118.00	-19.00	8128.00	8103.00
	-103.00	-58.00	-111.00	-111.00	8128.00	8103.00
	-358.00	-105.00	-276.00	-233.00	8128.00	8103.00
	-542.00	-92.00	-490.00	-191.00	8127.00	8103.00
	-461.00	-42.00	-705.00	-19.00	8128.00	8103.00
	-152.00	-42.00	-648.00	154.00	8129.00	8104.00
	198.00	38.00	-396.00	12.00	8128.00	8103.00
	231.00	-40.00	-206.00	-55.00	8128.00	8103.00
	44.00	-310.00	128.00	-120.00	8128.00	8103.00
	-132.00	-351.00	636.00	-82.00	8127.00	8103.00
	-95.00	-305.00	1316.00	160.00	8128.00	8103.00
	-41.00	-188.00	1120.00	605.00	8127.00	8102.00
	51.00	-185.00	732.00	833.00	8129.00	8103.00
	107.00	-112.00	392.00	721.00	8128.00	8103.00
	201.00	-82.00	246.00	382.00	8129.00	8103.00
	85.00	61.00	221.00	232.00	8128.00	8103.00
	-28.00	224.00	207.00	120.00	8127.00	8103.00
	-80.00	307.00	140.00	-48.00	8127.00	8102.00
	-139.00	252.00	25.00	-168.00	8127.00	8102.00
	-69.00	224.00	-44.00	-211.00	8128.00	8103.00
	17.00	237.00	-95.00	-229.00	8128.00	8103.00
	57.00	222.00	-142.00	-259.00	8127.00	8103.00
	84.00	153.00	-163.00	-244.00	8128.00	8103.00
	69.00	76.00	-201.00	-196.00	8128.00	8104.00
	-2.00	46.00	-242.00	-172.00	8128.00	8103.00
	-45.00	68.00	-268.00	-185.00	8128.00	8103.00
	-65.00	56.00	-268.00	-161.00	8128.00	8103.00
	-54.00	-22.00	-265.00	-109.00	8128.00	8103.00
	-9.00	-70.00	-261.00	-108.00	8128.00	8103.00
	23.00	-20.00	-257.00	-143.00	8129.00	8104.00
	-24.00	85.00	-255.00	-191.00	8128.00	8103.00
	30.00	129.00	-238.00	-194.00	8128.00	8103.00
	-14.00	27.00	-210.00	-141.00	8128.00	8104.00
	-55.00	-49.00	-193.00	-59.00	8128.00	8103.00
	64.00	-29.00	-194.00	14.00	8128.00	8104.00
	170.00	37.00	-228.00	35.00	8128.00	8104.00
	204.00	84.00	-233.00	60.00	8128.00	8103.00
	158.00	129.00	-158.00	125.00	8128.00	8104.00
	-14.00	49.00	-61.00	143.00	8129.00	8104.00
	-131.00	-109.00	109.00	147.00	8128.00	8104.00
	-179.00	-225.00	258.00	126.00	8128.00	8103.00
	-250.00	-193.00	215.00	-64.00	8129.00	8104.00
	-54.00	-48.00	148.00	-84.00	8128.00	8102.00
	258.00	14.00	81.00	-84.00	8128.00	8103.00
	319.00	48.00	33.00	-98.00	8127.00	8103.00
	248.00	-56.00	143.00	-79.00	8128.00	8103.00
	-104.00	-278.00	323.00	54.00	8127.00	8103.00
	-356.00	-435.00	278.00	160.00	8128.00	8103.00
	-289.00	-345.00	131.00	86.00	8128.00	8103.00
	-8.00	-278.00	23.00	9.00	8128.00	8103.00
	225.00	-201.00	-24.00	19.00	8127.00	8103.00
	262.00	-108.00	-23.00	105.00	8127.00	8103.00
	139.00	31.00	-20.00	112.00	8128.00	8103.00
	56.00	171.00	-38.00	63.00	8128.00	8103.00
	71.00	233.00	12.00	24.00	8127.00	8103.00
	227.00	298.00	61.00	-19.00	8128.00	8103.00
	324.00	354.00	105.00	-32.00	8128.00	8103.00
	218.00	230.00	121.00	-23.00	8129.00	8104.00
	89.00	199.00	58.00	-68.00	8128.00	8103.00
	92.00	26.00	-161.00	-43.00	8129.00	8103.00
	175.00	-83.00	-317.00	-134.00	8128.00	8103.00
	218.00	-237.00	-388.00	-128.00	8128.00	8103.00
	-21.00	-389.00	-366.00	37.00	8128.00	8103.00
	-243.00	-366.00	-100.00	190.00	8128.00	8103.00
	-431.00	-112.00	412.00	257.00	8128.00	8103.00
	-553.00	168.00	504.00	202.00	8128.00	8103.00
	-660.00	344.00	339.00	49.00	8127.00	8102.00
	-524.00	394.00	169.00	-20.00	8128.00	8103.00
	-246.00	338.00	99.00	-19.00	8129.00	8104.00
	-212.00	137.00	59.00	9.00	8127.00	8102.00
	-250.00	83.00	48.00	-27.00	8128.00	8103.00
	-240.00	74.00	47.00	-103.00	8128.00	8103.00
	-122.00	160.00	-77.00	-138.00	8128.00	8102.00
	135.00	225.00	-215.00	-273.00	8126.00	8102.00
	276.00	230.00	-291.00	-397.00	8128.00	8103.00
	316.00	122.00	-388.00	-434.00	8126.00	8103.00
	287.00	4.00	-387.00	-310.00	8127.00	8103.00
	194.00	-97.00	-57.00	-49.00	8128.00	8103.00
	125.00	-164.00	266.00	192.00	8127.00	8103.00
	53.00	-197.00	434.00	334.00	8128.00	8103.00
	-225.00	-242.00	230.00	364.00	8129.00	8103.00
	-149.00	-277.00	3.00	306.00	8129.00	8103.00
	-13.00	-242.00	71.00	226.00	8128.00	8103.00
	101.00	-253.00	40.00	100.00	8127.00	8103.00
	23.00	-267.00	-76.00	45.00	8127.00	8103.00
	-46.00	-194.00	-65.00	44.00	8128.00	8103.00
	-100.00	-192.00	-88.00	55.00	8128.00	8103.00
	-10.00	-183.00	-145.00	115.00	8129.00	8104.00
	153.00	-85.00	-142.00	96.00	8128.00	8103.00
	172.00	58.00	-123.00	65.00	8128.00	8103.00
	152.00	209.00	-84.00	26.00	8128.00	8104.00
	242.00	213.00	-37.00	8.00	8127.00	8103.00
	198.00	111.00	30.00	47.00	8128.00	8103.00
	136.00	30.00	184.00	76.00	8128.00	8103.00
	48.00	-90.00	272.00	98.00	8128.00	8103.00
	15.00	-110.00	223.00	32.00	8128.00	8103.00
	16.00	-3.00	116.00	-92.00	8129.00	8103.00
	-6.00	45.00	86.00	-161.00	8127.00	8102.00
	46.00	64.00	60.00	-158.00	8129.00	8104.00
	90.00	120.00	-107.00	-170.00	8128.00	8104.00
	58.00	110.00	-138.00	-200.00	8128.00	8103.00
	87.00	126.00	-247.00	-266.00	8127.00	8103.00
	81.00	251.00	-320.00	-303.00	8128.00	8104.00
	82.00	277.00	-118.00	-163.00	8128.00	8103.00
	23.00	200.00	197.00	31.00	8128.00	8104.00
	-63.00	203.00	200.00	106.00	8129.00	8104.00
	-129.00	206.00	166.00	113.00	8128.00	8104.00
	-111.00	173.00	-62.00	51.00	8128.00	8104.00
	81.00	-185.00	-296.00	-112.00	8128.00	8103.00
	81.00	-346.00	-385.00	-236.00	8128.00	8104.00
	-168.00	-520.00	-414.00	-131.00	8128.00	8104.00
	-354.00	-549.00	-377.00	-139.00	8129.00	8104.00
	-263.00	-228.00	-173.00	-192.00	8128.00	8103.00
	120.00	190.00	18.00	-268.00	8128.00	8103.00
	196.00	386.00	87.00	-133.00	8129.00	8104.00
	74.00	322.00	209.00	89.00	8128.00	8103.00
	26.00	161.00	251.00	374.00	8129.00	8103.00
	-56.00	-55.00	297.00	615.00	8128.00	8103.00
	-169.00	-365.00	526.00	805.00	8129.00	8103.00
	-272.00	-402.00	565.00	573.00	8128.00	8103.00
	-317.00	-255.00	394.00	197.00	8128.00	8103.00
	-266.00	-130.00	298.00	47.00	8127.00	8102.00
	-223.00	-41.00	163.00	45.00	8128.00	8103.00
	-208.00	-16.00	-3.00	-46.00	8129.00	8103.00
	-113.00	-90.00	-105.00	-249.00	8128.00	8103.00
	147.00	-67.00	-249.00	-331.00	8128.00	8104.00
	317.00	96.00	-299.00	-291.00	8128.00	8103.00
	252.00	194.00	-185.00	-166.00	8128.00	8103.00
	122.00	216.00	-65.00	-5.00	8128.00	8103.00
	6.00	232.00	100.00	92.00	8128.00	8104.00
	-34.00	222.00	193.00	78.00	8129.00	8104.00
	-28.00	141.00	152.00	0.00	8128.00	8103.00
	-55.00	71.00	186.00	-22.00	8128.00	8103.00
	-77.00	46.00	65.00	-35.00	8128.00	8103.00
	-28.00	70.00	-16.00	-94.00	8128.00	8103.00
	106.00	106.00	-76.00	-154.00	8128.00	8103.00
	72.00	65.00	-131.00	-169.00	8128.00	8103.00
	-198.00	-34.00	-152.00	-131.00	8128.00	8103.00
	-98.00	-84.00	-177.00	-77.00	8128.00	8103.00
	-26.00	-89.00	-200.00	-46.00	8128.00	8103.00
	72.00	-70.00	-214.00	-33.00	8128.00	8103.00
	150.00	-16.00	-222.00	-24.00	8128.00	8103.00
	171.00	-75.00	-238.00	-6.00	8129.00	8103.00
	292.00	-119.00	-245.00	24.00	8127.00	8103.00
	430.00	-163.00	-203.00	51.00	8127.00	8103.00
	413.00	-170.00	-130.00	30.00	8128.00	8103.00
	270.00	-99.00	-46.00	-15.00	8128.00	8103.00
	220.00	130.00	4.00	-66.00	8128.00	8103.00
	105.00	315.00	17.00	-67.00	8128.00	8103.00
	-45.00	295.00	2.00	-9.00	8128.00	8103.00
	-184.00	271.00	8.00	21.00	8127.00	8103.00
	-243.00	132.00	40.00	83.00	8128.00	8103.00
	-276.00	-35.00	84.00	141.00	8128.00	8103.00
	-291.00	-179.00	164.00	173.00	8128.00	8103.00
	-356.00	-309.00	247.00	211.00	8128.00	8104.00
	-344.00	-334.00	290.00	164.00	8129.00	8103.00
	-220.00	-229.00	248.00	50.00	8128.00	8103.00
	-93.00	-139.00	163.00	-28.00	8129.00	8104.00
	-7.00	-45.00	103.00	-96.00	8129.00	8104.00
	77.00	-15.00	54.00	-97.00	8128.00	8103.00
	120.00	-18.00	-13.00	-80.00	8129.00	8104.00
	143.00	21.00	-79.00	-81.00	8129.00	8104.00
	194.00	14.00	-115.00	-114.00	8129.00	8104.00
	190.00	-203.00	-125.00	-111.00	8128.00	8103.00
	170.00	-240.00	-131.00	-88.00	8129.00	8104.00
	76.00	-71.00	-141.00	-70.00	8128.00	8103.00
	18.00	183.00	-178.00	-57.00	8129.00	8104.00
	34.00	358.00	-165.00	-35.00	8128.00	8103.00
	14.00	360.00	-132.00	-9.00	8129.00	8104.00
	-35.00	150.00	-88.00	37.00	8128.00	8104.00
	-71.00	2.00	-42.00	117.00	8128.00	8104.00
	-106.00	-20.00	34.00	172.00	8129.00	8104.00
	-143.00	9.00	76.00	146.00	8129.00	8103.00
	-156.00	80.00	81.00	31.00	8128.00	8104.00
	-59.00	40.00	99.00	-19.00	8130.00	8104.00
	22.00	-105.00	125.00	44.00	8128.00	8103.00
	93.00	-214.00	126.00	138.00	8128.00	8103.00
	-53.00	-170.00	106.00	132.00	8129.00	8104.00
	-137.00	-32.00	83.00	32.00	8127.00	8103.00
	-135.00	70.00	54.00	-13.00	8129.00	8104.00
	-46.00	61.00	49.00	-24.00	8129.00	8103.00
	5.00	76.00	15.00	-41.00	8128.00	8103.00
	74.00	97.00	-28.00	-53.00	8128.00	8103.00
	85.00	173.00	-34.00	-98.00	8128.00	8103.00
	74.00	207.00	-49.00	-112.00	8128.00	8103.00
	35.00	212.00	-50.00	-150.00	8128.00	8103.00
	3.00	156.00	-8.00	-140.00	8128.00	8103.00
	41.00	120.00	60.00	-104.00	8127.00	8102.00
	99.00	94.00	47.00	-60.00	8128.00	8103.00
	106.00	18.00	-4.00	-32.00	8128.00	8103.00
	103.00	-95.00	-16.00	-6.00	8129.00	8104.00
	70.00	-169.00	-26.00	18.00	8128.00	8103.00
	-75.00	-142.00	-53.00	10.00	8128.00	8103.00
	-138.00	-184.00	-75.00	35.00	8128.00	8104.00
	-56.00	-208.00	-96.00	81.00	8128.00	8103.00
	83.00	-192.00	-112.00	105.00	8128.00	8103.00
	173.00	-131.00	-82.00	111.00	8128.00	8102.00
	110.00	-52.00	-65.00	117.00	8128.00	8103.00
	-19.00	-65.00	-43.00	89.00	8128.00	8103.00
	-57.00	-62.00	5.00	70.00	8128.00	8103.00
	-151.00	32.00	22.00	7.00	8127.00	8103.00
	-154.00	100.00	38.00	-32.00	8128.00	8103.00
	-109.00	98.00	68.00	-50.00	8128.00	8103.00
	-30.00	18.00	84.00	-64.00	8128.00	8104.00
	68.00	-46.00	78.00	-46.00	8128.00	8103.00
	86.00	-110.00	66.00	-14.00	8129.00	8103.00
	41.00	-178.00	87.00	5.00	8128.00	8103.00
	-14.00	-129.00	83.00	19.00	8127.00	8103.00
	135.00	-29.00	65.00	-59.00	8128.00	8102.00
	317.00	-61.00	-35.00	-207.00	8127.00	8102.00
	329.00	-240.00	-130.00	-239.00	8127.00	8103.00
	-19.00	-247.00	-133.00	-166.00	8127.00	8102.00
	-245.00	-10.00	-116.00	-33.00	8128.00	8103.00
	-332.00	291.00	-53.00	75.00	8127.00	8103.00
	-270.00	482.00	-17.00	172.00	8128.00	8103.00
	-179.00	368.00	-88.00	241.00	8128.00	8103.00
	-118.00	204.00	-17.00	262.00	8129.00	8103.00
	-111.00	-27.00	81.00	297.00	8129.00	8103.00
	-150.00	-170.00	134.00	249.00	8128.00	8103.00
	-211.00	-107.00	150.00	104.00	8128.00	8103.00
	-218.00	164.00	149.00	-100.00	8128.00	8103.00
	-2.00	274.00	89.00	-233.00	8129.00	8105.00
	267.00	348.00	-58.00	-250.00	8128.00	8104.00
	271.00	228.00	-82.00	-274.00	8128.00	8104.00
	184.00	23.00	35.00	-170.00	8128.00	8103.00
	86.00	-82.00	91.00	-102.00	8129.00	8104.00
	-15.00	-107.00	88.00	-17.00	8129.00	8104.00
	-7.00	-125.00	-32.00	40.00	8128.00	8103.00
	68.00	-176.00	-127.00	56.00	8128.00	8104.00
	96.00	-228.00	-187.00	78.00	8128.00	8103.00
	29.00	-278.00	-48.00	99.00	8128.00	8104.00
	76.00	-344.00	172.00	77.00	8128.00	8103.00
	154.00	-194.00	190.00	23.00	8128.00	8103.00
	78.00	-150.00	45.00	24.00	8127.00	8103.00
	17.00	-165.00	-41.00	40.00	8128.00	8104.00
	-46.00	-43.00	-168.00	1.00	8128.00	8104.00
	10.00	74.00	-185.00	-98.00	8128.00	8103.00
	93.00	93.00	-198.00	-115.00	8128.00	8103.00
	125.00	31.00	-79.00	-80.00	8128.00	8103.00
	37.00	-57.00	131.00	75.00	8129.00	8104.00
	-121.00	-149.00	357.00	230.00	8129.00	8104.00
	-214.00	-181.00	403.00	265.00	8129.00	8104.00
	-203.00	41.00	306.00	141.00	8128.00	8104.00
	-51.00	215.00	109.00	23.00	8128.00	8103.00
	92.00	261.00	3.00	-44.00	8130.00	8104.00
	243.00	237.00	-37.00	-92.00	8128.00	8103.00
	128.00	56.00	-65.00	-78.00	8128.00	8103.00
	81.00	-15.00	-60.00	-60.00	8128.00	8103.00
	-13.00	60.00	-65.00	-56.00	8128.00	8103.00
	-135.00	235.00	-112.00	-33.00	8128.00	8102.00
	-223.00	316.00	-136.00	5.00	8127.00	8103.00
	-179.00	314.00	-108.00	52.00	8127.00	8103.00
	-94.00	171.00	-55.00	79.00	8128.00	8103.00
	-72.00	-20.00	-15.00	99.00	8128.00	8103.00
	-145.00	-155.00	14.00	99.00	8128.00	8103.00
	-110.00	-97.00	14.00	-41.00	8128.00	8103.00
	-10.00	33.00	-38.00	-152.00	8129.00	8103.00
	78.00	86.00	-55.00	-189.00	8127.00	8103.00
	54.00	36.00	-69.00	-137.00	8128.00	8103.00
	39.00	-87.00	-79.00	-87.00	8128.00	8103.00
	-7.00	-171.00	-85.00	-45.00	8128.00	8103.00
	-81.00	-198.00	-71.00	-32.00	8129.00	8103.00
	-76.00	-198.00	-74.00	-10.00	8128.00	8103.00
	-44.00	-173.00	-93.00	-19.00	8128.00	8103.00
	-30.00	-152.00	-61.00	-38.00	8128.00	8104.00
	12.00	-86.00	-69.00	-54.00	8127.00	8103.00
	168.00	30.00	-103.00	-76.00	8128.00	8103.00
	301.00	134.00	-114.00	-100.00	8127.00	8102.00
	313.00	129.00	-99.00	-94.00	8129.00	8104.00
	275.00	154.00	-80.00	-73.00	8127.00	8102.00
	104.00	-2.00	-58.00	-45.00	8128.00	8103.00
	2.00	-42.00	-34.00	37.00	8127.00	8103.00
	-83.00	-62.00	12.00	109.00	8127.00	8103.00
	-99.00	-92.00	56.00	156.00	8128.00	8104.00
	-113.00	-105.00	106.00	171.00	8128.00	8103.00
	-202.00	-175.00	176.00	246.00	8128.00	8103.00
	-182.00	-288.00	240.00	235.00	8129.00	8104.00
	-190.00	-229.00	247.00	151.00	8128.00	8103.00
	-134.00	-120.00	211.00	8.00	8127.00	8103.00
	18.00	-37.00	155.00	-82.00	8129.00	8104.00
	133.00	57.00	81.00	-112.00	8127.00	8102.00
	102.00	-5.00	25.00	-84.00	8127.00	8103.00
	62.00	-79.00	-12.00	-62.00	8128.00	8103.00
	22.00	-34.00	-44.00	-63.00	8128.00	8103.00
	6.00	23.00	-65.00	-74.00	8128.00	8103.00
	59.00	39.00	-74.00	-35.00	8128.00	8103.00
	80.00	-25.00	-57.00	-5.00	8128.00	8103.00
	20.00	15.00	-28.00	-19.00	8128.00	8103.00
	41.00	162.00	-35.00	-62.00	8128.00	8103.00
	65.00	285.00	-52.00	-63.00	8128.00	8103.00
	45.00	354.00	-43.00	-56.00	8128.00	8103.00
	-74.00	358.00	-17.00	-27.00	8128.00	8103.00
	-122.00	296.00	-22.00	27.00	8128.00	8103.00
	-128.00	224.00	-18.00	71.00	8127.00	8103.00
	-169.00	163.00	-24.00	63.00	8128.00	8104.00
	-164.00	127.00	-28.00	36.00	8128.00	8104.00
	-98.00	84.00	-18.00	12.00	8128.00	8104.00
	-49.00	-59.00	-16.00	31.00	8128.00	8104.00
	-20.00	-136.00	-27.00	17.00	8128.00	8104.00
	-8.00	-122.00	-5.00	-12.00	8129.00	8104.00
	62.00	-86.00	-9.00	-33.00	8129.00	8103.00
	159.00	-75.00	-33.00	-30.00	8128.00	8103.00
	212.00	-63.00	-46.00	-43.00	8128.00	8103.00
	259.00	-88.00	-70.00	-43.00	8129.00	8104.00
	210.00	-155.00	-75.00	-40.00	8128.00	8103.00
	166.00	-262.00	-76.00	-30.00	8129.00	8104.00
	143.00	-208.00	-77.00	-35.00	8129.00	8104.00
	57.00	-113.00	-79.00	-19.00	8129.00	8104.00
	-42.00	8.00	-68.00	25.00	8128.00	8103.00
	-129.00	81.00	8.00	74.00	8128.00	8103.00
	-194.00	101.00	75.00	123.00	8129.00	8104.00
	-211.00	78.00	122.00	123.00	8129.00	8104.00
	-208.00	84.00	131.00	90.00	8128.00	8104.00
	-149.00	77.00	131.00	41.00	8128.00	8103.00
	-111.00	-20.00	117.00	32.00	8128.00	8104.00
	-137.00	-90.00	107.00	-3.00	8128.00	8103.00
	-95.00	-88.00	72.00	-17.00	8128.00	8103.00
	4.00	-55.00	72.00	-13.00	8129.00	8103.00
	20.00	-47.00	58.00	-20.00	8128.00	8103.00
	9.00	-50.00	27.00	-30.00	8129.00	8104.00
	17.00	-52.00	8.00	-17.00	8129.00	8103.00
	21.00	-48.00	-11.00	2.00	8127.00	8102.00
	39.00	-10.00	-22.00	-6.00	8129.00	8103.00
	54.00	13.00	-32.00	-13.00	8128.00	8103.00
	98.00	53.00	-47.00	-30.00	8128.00	8103.00
	181.00	80.00	-59.00	-44.00	8128.00	8102.00
	261.00	91.00	-86.00	-65.00	8128.00	8102.00
	205.00	64.00	-99.00	-60.00	8128.00	8102.00
	138.00	27.00	-91.00	-56.00	8128.00	8103.00
	65.00	-22.00	-76.00	-32.00	8128.00	8103.00
	-21.00	-74.00	-62.00	5.00	8127.00	8104.00
	-96.00	-85.00	-48.00	23.00	8127.00	8103.00
	-107.00	-110.00	-19.00	85.00	8128.00	8103.00
	-93.00	-215.00	37.00	168.00	8128.00	8103.00
	-126.00	-211.00	80.00	165.00	8128.00	8103.00
	-123.00	-172.00	89.00	111.00	8128.00	8103.00
	-118.00	-141.00	107.00	36.00	8128.00	8103.00
	-79.00	22.00	92.00	-54.00	8129.00	8104.00
	-81.00	42.00	51.00	-69.00	8129.00	8104.00
	-74.00	3.00	16.00	-67.00	8128.00	8103.00
	-50.00	65.00	2.00	-50.00	8129.00	8104.00
	-17.00	107.00	-2.00	-9.00	8129.00	8104.00
	-20.00	93.00	1.00	49.00	8128.00	8103.00
	-36.00	121.00	5.00	62.00	8128.00	8103.00
	-76.00	149.00	30.00	32.00	8128.00	8104.00
	-59.00	204.00	35.00	-10.00	8129.00	8103.00
	3.00	284.00	27.00	-46.00	8128.00	8103.00
	50.00	244.00	-2.00	-70.00	8129.00	8104.00
	80.00	127.00	-17.00	-84.00	8129.00	8104.00
	83.00	44.00	-20.00	-73.00	8128.00	8103.00
	77.00	2.00	-22.00	-57.00	8128.00	8103.00
	67.00	-34.00	-31.00	-45.00	8128.00	8103.00
	64.00	-46.00	-38.00	-39.00	8128.00	8103.00
	53.00	-52.00	-37.00	-30.00	8128.00	8103.00
	48.00	-55.00	-33.00	-17.00	8128.00	8103.00
	44.00	-44.00	-36.00	-14.00	8128.00	8103.00
	34.00	-43.00	-33.00	0.00	8129.00	8104.00
	21.00	-35.00	-24.00	8.00	8128.00	8103.00
	13.00	-10.00	-24.00	4.00	8128.00	8104.00
	14.00	1.00	-18.00	-2.00	8128.00	8102.00
	20.00	-44.00	-9.00	3.00	8128.00	8103.00
	25.00	-65.00	-11.00	9.00	8128.00	8103.00
	29.00	-62.00	-10.00	9.00	8127.00	8103.00
	18.00	-60.00	-6.00	8.00	8128.00	8104.00
	5.00	-54.00	-6.00	8.00	8128.00	8103.00
	-7.00	-46.00	0.00	8.00	8129.00	8104.00
	-16.00	-36.00	1.00	3.00	8127.00	8103.00
	-15.00	-31.00	4.00	2.00	8127.00	8103.00
	-14.00	-22.00	12.00	-1.00	8128.00	8103.00
	-12.00	-8.00	17.00	-10.00	8128.00	8103.00
	-4.00	-1.00	15.00	-14.00	8129.00	8103.00
	-3.00	8.00	2.00	-21.00	8128.00	8103.00
	2.00	10.00	3.00	-21.00	8129.00	8104.00
	2.00	-1.00	5.00	-22.00	8128.00	8104.00
	1.00	-3.00	7.00	-23.00	8128.00	8103.00
	1.00	-3.00	4.00	-17.00	8128.00	8102.00
	-2.00	-21.00	6.00	8.00	8128.00	8103.00
	-13.00	-30.00	5.00	14.00	8128.00	8103.00
	-33.00	-40.00	4.00	19.00	8128.00	8103.00
	-39.00	-37.00	12.00	20.00	8127.00	8103.00
	-28.00	-26.00	14.00	6.00	8127.00	8103.00
	-21.00	-21.00	11.00	5.00	8127.00	8103.00
	-20.00	-14.00	6.00	0.00	8128.00	8102.00
	-10.00	-9.00	7.00	-3.00	8128.00	8103.00
	-6.00	-9.00	6.00	-3.00	8128.00	8103.00
	-3.00	-16.00	3.00	-1.00	8127.00	8102.00
	1.00	-9.00	4.00	-4.00	8128.00	8103.00
	2.00	-8.00	2.00	-2.00	8128.00	8104.00
	5.00	0.00	5.00	-5.00	8128.00	8103.00
	2.00	8.00	6.00	-4.00	8128.00	8104.00
	1.00	15.00	8.00	-3.00	8129.00	8104.00
	2.00	17.00	9.00	-2.00	8128.00	8103.00
	5.00	31.00	8.00	-2.00	8128.00	8103.00
	1.00	44.00	5.00	-4.00	8128.00	8103.00
	-3.00	55.00	3.00	-5.00	8129.00	8104.00
	-6.00	55.00	1.00	-1.00	8129.00	8103.00
	-4.00	47.00	-2.00	0.00	8128.00	8103.00
	2.00	22.00	1.00	5.00	8128.00	8104.00
	0.00	6.00	-3.00	10.00	8128.00	8103.00
	-3.00	0.00	-3.00	10.00	8127.00	8102.00
	-5.00	-3.00	-3.00	11.00	8128.00	8103.00
	-8.00	-15.00	-2.00	13.00	8128.00	8104.00
	-11.00	-25.00	-7.00	4.00	8127.00	8103.00
	-10.00	-52.00	-8.00	0.00	8128.00	8103.00
	7.00	-41.00	-10.00	-6.00	8129.00	8103.00
	15.00	-15.00	-17.00	-10.00	8129.00	8103.00
	18.00	-4.00	-12.00	4.00	8127.00	8103.00
	10.00	16.00	-8.00	7.00	8127.00	8103.00
	10.00	27.00	-8.00	28.00	8128.00	8103.00
	34.00	16.00	-25.00	48.00	8128.00	8103.00
	17.00	37.00	-36.00	25.00	8127.00	8103.00
	-20.00	38.00	-3.00	28.00	8128.00	8103.00
	-33.00	28.00	10.00	13.00	8127.00	8103.00
	-40.00	2.00	3.00	3.00	8128.00	8103.00
	-34.00	-21.00	12.00	13.00	8127.00	8103.00
	-15.00	-32.00	12.00	23.00	8128.00	8103.00
	-14.00	-25.00	9.00	14.00	8128.00	8103.00
	-13.00	-13.00	3.00	2.00	8127.00	8103.00
	-14.00	-5.00	-2.00	0.00	8128.00	8103.00
	-10.00	7.00	-9.00	-3.00	8128.00	8102.00
	-7.00	8.00	-13.00	-6.00	8128.00	8103.00
	3.00	19.00	-12.00	-8.00	8128.00	8103.00
	8.00	3.00	-11.00	-5.00	8128.00	8103.00
	7.00	-10.00	-7.00	-2.00	8128.00	8103.00
	7.00	-11.00	-4.00	0.00	8128.00	8103.00
	7.00	-10.00	-3.00	0.00	8128.00	8103.00
	7.00	-7.00	-2.00	-1.00	8128.00	8103.00
	6.00	-3.00	2.00	-4.00	8127.00	8102.00
	7.00	1.00	5.00	-6.00	8128.00	8102.00
	12.00	6.00	6.00	-8.00	8129.00	8103.00
	11.00	8.00	6.00	-9.00	8128.00	8102.00
	11.00	9.00	7.00	-10.00	8128.00	8103.00
	8.00	4.00	3.00	-8.00	8127.00	8102.00
	7.00	3.00	3.00	-7.00	8128.00	8104.00
	8.00	1.00	4.00	-10.00	8128.00	8103.00
	5.00	-3.00	5.00	-11.00	8129.00	8104.00
	6.00	-8.00	5.00	-13.00	8128.00	8103.00
	4.00	-9.00	3.00	-13.00	8129.00	8103.00
	2.00	-14.00	1.00	-12.00	8128.00	8103.00
	2.00	-13.00	-2.00	-12.00	8129.00	8103.00
	1.00	-15.00	-5.00	-13.00	8129.00	8103.00
	2.00	-15.00	-8.00	-13.00	8128.00	8103.00
	1.00	-15.00	-11.00	-13.00	8129.00	8103.00
	-2.00	-15.00	-12.00	-12.00	8129.00	8103.00
	-3.00	-13.00	-12.00	-11.00	8129.00	8104.00
	0.00	-7.00	-12.00	-13.00	8129.00	8103.00
	0.00	-2.00	-13.00	-13.00	8129.00	8103.00
	0.00	1.00	-16.00	-14.00	8129.00	8104.00
	1.00	6.00	-14.00	-15.00	8129.00	8103.00
	0.00	10.00	-11.00	-16.00	8128.00	8103.00
	-2.00	13.00	-6.00	-16.00	8129.00	8104.00
	-4.00	13.00	-6.00	-17.00	8128.00	8103.00
	-4.00	12.00	-5.00	-14.00	8129.00	8104.00
	-6.00	8.00	-8.00	-12.00	8129.00	8103.00
	-5.00	7.00	-10.00	-13.00	8129.00	8104.00
	-5.00	4.00	-14.00	-12.00	8128.00	8103.00
	-10.00	-1.00	-13.00	-7.00	8128.00	8103.00
	-10.00	-5.00	-17.00	-4.00	8129.00	8104.00
	-7.00	-9.00	-18.00	-2.00	8129.00	8103.00
	-5.00	-11.00	-20.00	0.00	8129.00	8103.00
	-4.00	-14.00	-21.00	1.00	8128.00	8103.00
	-3.00	-13.00	-20.00	6.00	8128.00	8104.00
	-3.00	-15.00	-18.00	5.00	8128.00	8104.00
	-2.00	-16.00	-16.00	7.00	8128.00	8103.00
	1.00	-13.00	-12.00	5.00	8128.00	8104.00
	-2.00	-8.00	-9.00	4.00	8128.00	8103.00
	-2.00	-3.00	-5.00	3.00	8128.00	8104.00
	0.00	2.00	-3.00	4.00	8127.00	8103.00
	0.00	6.00	3.00	3.00	8128.00	8103.00
	4.00	12.00	6.00	1.00	8129.00	8103.00
	3.00	13.00	7.00	2.00	8128.00	8103.00
	3.00	14.00	12.00	3.00	8128.00	8103.00
	-4.00	9.00	12.00	4.00	8128.00	8103.00
	-5.00	6.00	15.00	6.00	8128.00	8103.00
	-6.00	2.00	15.00	5.00	8128.00	8103.00
	-5.00	-15.00	12.00	4.00	8128.00	8104.00
	12.00	-22.00	6.00	2.00	8128.00	8103.00
	22.00	-24.00	4.00	0.00	8128.00	8103.00
	27.00	-17.00	6.00	1.00	8127.00	8103.00
	18.00	-9.00	4.00	2.00	8127.00	8103.00
	-3.00	7.00	-3.00	3.00	8127.00	8103.00
	-16.00	17.00	-8.00	6.00	8127.00	8103.00
	-20.00	15.00	-10.00	11.00	8128.00	8103.00
	-25.00	5.00	-2.00	13.00	8128.00	8103.00
	-22.00	-6.00	17.00	18.00	8127.00	8103.00
	-16.00	9.00	17.00	2.00	8127.00	8103.00
	-14.00	-13.00	25.00	-20.00	8128.00	8103.00
	-19.00	-24.00	20.00	-27.00	8128.00	8103.00
	-19.00	-25.00	16.00	-22.00	8129.00	8103.00
	-14.00	-35.00	22.00	-14.00	8129.00	8104.00
	-15.00	-12.00	29.00	-1.00	8129.00	8104.00
	3.00	16.00	16.00	9.00	8127.00	8103.00
	51.00	35.00	13.00	2.00	8127.00	8103.00
	70.00	39.00	18.00	2.00	8127.00	8103.00
	49.00	49.00	20.00	-4.00	8128.00	8103.00
	30.00	72.00	5.00	-30.00	8128.00	8102.00
	22.00	100.00	-12.00	-22.00	8128.00	8103.00
	-15.00	88.00	-22.00	-3.00	8128.00	8103.00
	-44.00	8.00	-12.00	56.00	8128.00	8103.00
	-53.00	-64.00	10.00	117.00	8128.00	8103.00
	-63.00	-128.00	47.00	133.00	8128.00	8103.00
	-93.00	-125.00	51.00	66.00	8128.00	8104.00
	-65.00	-74.00	35.00	-11.00	8128.00	8103.00
	-37.00	-53.00	27.00	-30.00	8129.00	8104.00
	-12.00	-53.00	13.00	-35.00	8128.00	8104.00
	-6.00	-57.00	1.00	-31.00	8129.00	8104.00
	3.00	-59.00	-9.00	-23.00	8128.00	8103.00
	11.00	-39.00	-11.00	-14.00	8130.00	8104.00
	10.00	-17.00	-13.00	-18.00	8129.00	8103.00
	8.00	18.00	-16.00	-25.00	8128.00	8103.00
	12.00	36.00	-8.00	-25.00	8129.00	8103.00
	10.00	36.00	4.00	-13.00	8129.00	8103.00
	3.00	38.00	6.00	-7.00	8128.00	8103.00
	7.00	52.00	7.00	-7.00	8128.00	8102.00
	11.00	54.00	3.00	-5.00	8128.00	8103.00
	11.00	49.00	-12.00	-10.00	8128.00	8103.00
	11.00	26.00	-19.00	-13.00	8129.00	8104.00
	14.00	23.00	-13.00	-11.00	8128.00	8103.00
	15.00	14.00	-13.00	-7.00	8128.00	8102.00
	18.00	30.00	-17.00	-8.00	8129.00	8103.00
	16.00	28.00	-19.00	-10.00	8128.00	8103.00
	14.00	11.00	-19.00	-4.00	8128.00	8103.00
	12.00	1.00	-20.00	0.00	8128.00	8103.00
	11.00	-1.00	-18.00	-4.00	8128.00	8102.00
	8.00	-8.00	-16.00	-3.00	8128.00	8103.00
	8.00	-10.00	-16.00	-2.00	8128.00	8102.00
	5.00	-10.00	-15.00	-1.00	8128.00	8103.00
	4.00	-8.00	-14.00	0.00	8128.00	8103.00
	8.00	-3.00	-12.00	-1.00	8129.00	8104.00
	6.00	2.00	-9.00	-8.00	8128.00	8103.00
	7.00	6.00	-9.00	-8.00	8129.00	8103.00
	5.00	3.00	-5.00	-6.00	8128.00	8103.00
	-2.00	-6.00	-4.00	-1.00	8128.00	8103.00
	-7.00	-11.00	-2.00	1.00	8127.00	8103.00
	-10.00	-17.00	2.00	3.00	8127.00	8102.00
	-13.00	-26.00	4.00	5.00	8127.00	8103.00
	-9.00	-22.00	10.00	-1.00	8128.00	8103.00
	2.00	-11.00	16.00	-10.00	8128.00	8103.00
	6.00	-7.00	19.00	-10.00	8128.00	8103.00
	5.00	-11.00	17.00	-8.00	8127.00	8102.00
	3.00	-11.00	14.00	-6.00	8128.00	8103.00
	2.00	-11.00	13.00	-3.00	8128.00	8103.00
	2.00	-10.00	12.00	-1.00	8128.00	8103.00
	3.00	-8.00	11.00	-2.00	8128.00	8103.00
	4.00	-5.00	11.00	-1.00	8127.00	8102.00
	2.00	-1.00	10.00	0.00	8128.00	8103.00
	2.00	1.00	9.00	0.00	8128.00	8102.00
	3.00	6.00	7.00	-2.00	8129.00	8103.00
	1.00	10.00	0.00	0.00	8129.00	8104.00
	-3.00	12.00	-6.00	3.00	8128.00	8104.00
	-5.00	12.00	-8.00	2.00	8128.00	8103.00
	0.00	16.00	-11.00	-1.00	8129.00	8103.00
	1.00	17.00	-14.00	-1.00	8129.00	8104.00
	-2.00	16.00	-15.00	1.00	8128.00	8104.00
	-2.00	14.00	-15.00	2.00	8128.00	8104.00
	-4.00	8.00	-15.00	2.00	8128.00	8103.00
	-5.00	0.00	-11.00	6.00	8128.00	8104.00
	-9.00	-7.00	-10.00	8.00	8128.00	8104.00
	-10.00	-11.00	-9.00	10.00	8128.00	8103.00
	-7.00	-12.00	-8.00	8.00	8128.00	8103.00
	-6.00	-16.00	-9.00	7.00	8127.00	8103.00
	-5.00	-20.00	-6.00	9.00	8129.00	8104.00
	0.00	-19.00	-4.00	7.00	8128.00	8104.00
	1.00	-14.00	-4.00	2.00	8127.00	8103.00
	5.00	-9.00	-5.00	1.00	8128.00	8104.00
	3.00	-11.00	-6.00	6.00	8128.00	8103.00
	-3.00	-10.00	-7.00	6.00	8128.00	8104.00
	-3.00	-2.00	-7.00	3.00	8127.00	8103.00
	2.00	6.00	-6.00	-1.00	8129.00	8104.00
	0.00	10.00	-3.00	-2.00	8128.00	8103.00
	1.00	13.00	-3.00	-1.00	8128.00	8102.00
	3.00	14.00	-2.00	-1.00	8129.00	8104.00
	6.00	12.00	-2.00	0.00	8128.00	8103.00
	8.00	8.00	-2.00	-2.00	8128.00	8103.00
	9.00	7.00	0.00	-2.00	8128.00	8103.00
	6.00	2.00	-2.00	-1.00	8128.00	8103.00
	0.00	-2.00	0.00	1.00	8128.00	8104.00
	-6.00	-10.00	0.00	5.00	8128.00	8103.00
	-7.00	-17.00	3.00	5.00	8128.00	8103.00
	-8.00	-18.00	6.00	3.00	8128.00	8104.00
	-12.00	-20.00	9.00	2.00	8128.00	8103.00
	-12.00	-23.00	13.00	2.00	8128.00	8103.00
	-9.00	-20.00	16.00	-2.00	8128.00	8103.00
	-5.00	-17.00	17.00	-2.00	8128.00	8103.00
	0.00	-12.00	14.00	-6.00	8128.00	8103.00
	3.00	0.00	17.00	-11.00	8128.00	8103.00
	5.00	9.00	13.00	-15.00	8129.00	8103.00
	3.00	14.00	11.00	-12.00	8129.00	8103.00
	3.00	11.00	8.00	-9.00	8129.00	8103.00
	5.00	1.00	4.00	-14.00	8128.00	8103.00
	3.00	-3.00	4.00	-13.00	8128.00	8103.00
	-3.00	0.00	-3.00	-13.00	8128.00	8103.00
	3.00	5.00	-9.00	-12.00	8128.00	8103.00
	11.00	-17.00	-12.00	-7.00	8128.00	8102.00
	7.00	-41.00	-14.00	3.00	8128.00	8104.00
	12.00	-51.00	-18.00	8.00	8127.00	8103.00
	14.00	-61.00	-21.00	1.00	8128.00	8103.00
	-6.00	-69.00	-17.00	-8.00	8129.00	8103.00
	-19.00	-52.00	-20.00	-10.00	8128.00	8103.00
	-24.00	-26.00	-23.00	0.00	8128.00	8102.00
	-21.00	28.00	-26.00	-2.00	8128.00	8103.00
	-23.00	60.00	-17.00	4.00	8127.00	8102.00
	-25.00	74.00	0.00	14.00	8128.00	8103.00
	-26.00	105.00	7.00	2.00	8127.00	8102.00
	-18.00	121.00	11.00	-10.00	8128.00	8103.00
	-14.00	80.00	22.00	-19.00	8128.00	8102.00
	-7.00	43.00	28.00	-8.00	8128.00	8103.00
	-7.00	13.00	18.00	-3.00	8128.00	8103.00
	3.00	-20.00	17.00	-5.00	8128.00	8103.00
	21.00	-10.00	12.00	-13.00	8128.00	8103.00
	21.00	-2.00	17.00	-14.00	8128.00	8103.00
	8.00	-8.00	24.00	1.00	8127.00	8103.00
	-5.00	-11.00	22.00	9.00	8128.00	8104.00
	-7.00	-13.00	20.00	9.00	8127.00	8103.00
	-7.00	-7.00	20.00	1.00	8127.00	8102.00
	-14.00	-6.00	13.00	-3.00	8128.00	8103.00
	-6.00	-8.00	4.00	-4.00	8129.00	8104.00
	3.00	-8.00	-2.00	-5.00	8128.00	8103.00
	7.00	-14.00	-3.00	-6.00	8129.00	8103.00
	7.00	-30.00	-7.00	1.00	8128.00	8103.00
	8.00	-32.00	-9.00	3.00	8128.00	8103.00
	10.00	-27.00	-12.00	4.00	8127.00	8103.00
	9.00	-24.00	-14.00	6.00	8128.00	8103.00
	7.00	-23.00	-15.00	6.00	8128.00	8104.00
	6.00	-21.00	-14.00	5.00	8128.00	8103.00
	11.00	-13.00	-12.00	5.00	8128.00	8103.00
	11.00	-7.00	-13.00	3.00	8128.00	8102.00
	10.00	-3.00	-13.00	4.00	8127.00	8103.00
	6.00	0.00	-12.00	5.00	8127.00	8102.00
	5.00	7.00	-12.00	4.00	8127.00	8103.00
	3.00	10.00	-9.00	3.00	8128.00	8103.00
	0.00	10.00	-8.00	2.00	8128.00	8103.00
	-6.00	5.00	-8.00	3.00	8127.00	8102.00
	-16.00	-3.00	-8.00	9.00	8128.00	8104.00
	-16.00	-3.00	-5.00	5.00	8128.00	8103.00
	-10.00	0.00	-2.00	-1.00	8129.00	8103.00
	-12.00	-3.00	1.00	-1.00	8129.00	8104.00
	-12.00	-4.00	-2.00	-2.00	8128.00	8103.00
	0.00	0.00	3.00	-7.00	8129.00	8104.00
	5.00	-1.00	1.00	-8.00	8129.00	8104.00
	5.00	-6.00	1.00	-8.00	8128.00	8103.00
	2.00	-9.00	-2.00	-4.00	8128.00	8102.00
	5.00	-8.00	2.00	-5.00	8129.00	8104.00
	5.00	-7.00	3.00	-6.00	8128.00	8103.00
	5.00	-5.00	1.00	-5.00	8129.00	8103.00
	7.00	-1.00	1.00	-6.00	8129.00	8103.00
	6.00	2.00	1.00	-5.00	8129.00	8103.00
	5.00	6.00	2.00	-4.00	8128.00	8103.00
	4.00	10.00	2.00	-3.00	8128.00	8103.00
	2.00	12.00	2.00	-4.00	8128.00	8103.00
	2.00	16.00	2.00	-6.00	8128.00	8103.00
	-3.00	17.00	0.00	-8.00	8128.00	8102.00
	-10.00	13.00	-2.00	-2.00	8129.00	8103.00
	-10.00	8.00	-2.00	-5.00	8128.00	8103.00
	-9.00	9.00	-2.00	-7.00	8128.00	8102.00
	-8.00	10.00	1.00	-7.00	8127.00	8102.00
	-3.00	9.00	2.00	-6.00	8129.00	8103.00
	-2.00	2.00	-2.00	-3.00	8128.00	8104.00
	3.00	-3.00	0.00	0.00	8128.00	8103.00
	4.00	-8.00	1.00	2.00	8127.00	8104.00
	4.00	-8.00	1.00	2.00	8127.00	8103.00
	3.00	-12.00	2.00	4.00	8128.00	8103.00
	4.00	-19.00	4.00	7.00	8128.00	8103.00
	3.00	-17.00	7.00	5.00	8128.00	8104.00
	5.00	-11.00	9.00	3.00	8127.00	8103.00
	6.00	-6.00	9.00	1.00	8127.00	8103.00
	4.00	-1.00	6.00	1.00	8127.00	8103.00
	5.00	2.00	5.00	3.00	8129.00	8104.00
	7.00	8.00	5.00	-1.00	8129.00	8103.00
	5.00	17.00	1.00	-1.00	8129.00	8104.00
	1.00	18.00	-2.00	0.00	8128.00	8103.00
	-4.00	19.00	-3.00	-2.00	8128.00	8103.00
	-2.00	10.00	-3.00	2.00	8128.00	8104.00
	1.00	5.00	4.00	1.00	8129.00	8104.00
	-2.00	5.00	-2.00	2.00	8128.00	8103.00
	-6.00	1.00	-4.00	2.00	8128.00	8103.00
	-9.00	-2.00	-4.00	4.00	8128.00	8104.00
	-10.00	-8.00	-2.00	5.00	8128.00	8103.00
	-5.00	-12.00	-2.00	7.00	8128.00	8104.00
	-5.00	-13.00	-5.00	8.00	8128.00	8103.00
	-3.00	-12.00	-4.00	5.00	8128.00	8103.00
	-2.00	-13.00	-5.00	7.00	8128.00	8104.00
	0.00	-17.00	-6.00	9.00	8128.00	8103.00
	-2.00	-21.00	-8.00	11.00	8128.00	8103.00
	2.00	-24.00	-5.00	13.00	8127.00	8103.00
	3.00	-20.00	0.00	11.00	8128.00	8103.00
	-7.00	-15.00	2.00	6.00	8127.00	8103.00
	-7.00	-4.00	5.00	2.00	8128.00	8103.00
	-6.00	3.00	7.00	-2.00	8128.00	8103.00
	-7.00	4.00	9.00	-2.00	8129.00	8103.00
	-6.00	4.00	6.00	-3.00	8128.00	8103.00
	-3.00	8.00	3.00	-5.00	8128.00	8103.00
	1.00	11.00	1.00	-6.00	8129.00	8104.00
	0.00	10.00	-4.00	-7.00	8129.00	8103.00
	-7.00	4.00	-6.00	-3.00	8128.00	8104.00
	-7.00	4.00	-2.00	-4.00	8128.00	8103.00
	2.00	8.00	-4.00	-12.00	8128.00	8103.00
	7.00	6.00	-6.00	-15.00	8129.00	8103.00
	0.00	-11.00	-8.00	-9.00	8128.00	8103.00
	-7.00	-21.00	-9.00	-6.00	8128.00	8103.00
	-5.00	-21.00	-8.00	-8.00	8128.00	8103.00
	1.00	-31.00	-9.00	-9.00	8128.00	8103.00
	1.00	-29.00	-12.00	-7.00	8128.00	8102.00
	-11.00	-38.00	-11.00	0.00	8128.00	8103.00
	-15.00	-43.00	-8.00	6.00	8127.00	8103.00
	-3.00	-22.00	-5.00	5.00	8128.00	8104.00
	-4.00	5.00	-3.00	1.00	8128.00	8103.00
	-5.00	25.00	-4.00	-4.00	8128.00	8103.00
	-2.00	45.00	-7.00	-9.00	8129.00	8103.00
	5.00	60.00	-7.00	-13.00	8129.00	8104.00
	2.00	39.00	-6.00	-13.00	8128.00	8103.00
	3.00	20.00	-5.00	-10.00	8128.00	8103.00
	2.00	15.00	-3.00	-10.00	8129.00	8104.00
	3.00	14.00	-7.00	-12.00	8129.00	8103.00
	0.00	10.00	-12.00	-8.00	8128.00	8103.00
	0.00	1.00	-9.00	-2.00	8129.00	8103.00
	2.00	-6.00	-7.00	-1.00	8129.00	8104.00
	5.00	-7.00	-7.00	-3.00	8129.00	8103.00
	3.00	-9.00	-7.00	-4.00	8129.00	8104.00
	1.00	-12.00	-5.00	-1.00	8129.00	8104.00
	0.00	-13.00	-5.00	0.00	8129.00	8103.00
	2.00	-15.00	-5.00	2.00	8127.00	8103.00
	0.00	-15.00	-5.00	1.00	8128.00	8103.00
	0.00	-16.00	-3.00	4.00	8127.00	8103.00
	0.00	-16.00	0.00	3.00	8127.00	8103.00
	1.00	-12.00	1.00	4.00	8128.00	8103.00
	1.00	-6.00	2.00	1.00	8128.00	8103.00
	0.00	0.00	1.00	0.00	8129.00	8104.00
	0.00	6.00	-2.00	-3.00	8129.00	8103.00
	2.00	10.00	-2.00	-6.00	8128.00	8103.00
	2.00	10.00	1.00	-3.00	8129.00	8103.00
	2.00	12.00	1.00	-4.00	8128.00	8103.00
	4.00	12.00	3.00	-5.00	8128.00	8103.00
	6.00	11.00	5.00	-4.00	8129.00	8104.00
	4.00	6.00	4.00	-4.00	8129.00	8103.00
	2.00	-2.00	3.00	-1.00	8128.00	8103.00
	3.00	-3.00	3.00	-1.00	8129.00	8103.00
	5.00	-4.00	5.00	-1.00	8129.00	8104.00
	4.00	-9.00	4.00	1.00	8128.00	8104.00
	-3.00	-12.00	3.00	4.00	8128.00	8103.00
	-6.00	-13.00	4.00	4.00	8128.00	8103.00
	-4.00	-10.00	3.00	1.00	8128.00	8103.00
	-5.00	-8.00	4.00	2.00	8128.00	8104.00
	-10.00	-9.00	1.00	4.00	8128.00	8104.00
	-14.00	-11.00	2.00	4.00	8128.00	8104.00
	-7.00	-2.00	6.00	-2.00	8129.00	8103.00
	-3.00	-2.00	6.00	-2.00	8129.00	8104.00
	-3.00	1.00	5.00	-2.00	8129.00	8104.00
	-4.00	5.00	9.00	-3.00	8128.00	8103.00
	-2.00	7.00	6.00	0.00	8129.00	8103.00
	1.00	2.00	0.00	8.00	8127.00	8103.00
	1.00	7.00	2.00	5.00	8127.00	8103.00
	5.00	13.00	2.00	-3.00	8128.00	8103.00
	5.00	16.00	4.00	-8.00	8129.00	8104.00
	4.00	13.00	3.00	-7.00	8129.00	8104.00
	2.00	8.00	1.00	-5.00	8129.00	8104.00
	-5.00	2.00	-5.00	-4.00	8128.00	8103.00
	-5.00	-1.00	-4.00	-1.00	8128.00	8103.00
	-2.00	-7.00	-2.00	-2.00	8128.00	8103.00
	-3.00	-10.00	-2.00	-1.00	8128.00	8103.00
	0.00	-8.00	-4.00	-3.00	8129.00	8103.00
	3.00	-8.00	-6.00	-6.00	8128.00	8103.00
	5.00	-10.00	-3.00	-3.00	8128.00	8103.00
	3.00	-9.00	2.00	-3.00	8128.00	8103.00
	4.00	-7.00	3.00	-4.00	8129.00	8103.00
	5.00	-6.00	3.00	-4.00	8128.00	8103.00
	4.00	1.00	1.00	-4.00	8128.00	8103.00
	5.00	5.00	1.00	-3.00	8127.00	8103.00
	6.00	8.00	2.00	-2.00	8128.00	8103.00
	4.00	10.00	2.00	-1.00	8129.00	8104.00
	4.00	12.00	1.00	-3.00	8128.00	8103.00
	3.00	18.00	1.00	-2.00	8129.00	8104.00
	2.00	17.00	-2.00	-4.00	8129.00	8103.00
	2.00	11.00	-2.00	-2.00	8128.00	8103.00
	-3.00	9.00	-4.00	-4.00	8128.00	8103.00
	-5.00	-2.00	-6.00	-1.00	8129.00	8103.00
	-6.00	-5.00	-8.00	3.00	8128.00	8103.00
	-4.00	-7.00	-9.00	4.00	8127.00	8103.00
	1.00	-12.00	-13.00	3.00	8127.00	8103.00
	0.00	-15.00	-8.00	5.00	8127.00	8103.00
	-3.00	-17.00	-2.00	2.00	8127.00	8103.00
	-5.00	-15.00	2.00	4.00	8129.00	8104.00
	-6.00	-16.00	6.00	3.00	8129.00	8104.00
	-6.00	-16.00	6.00	1.00	8128.00	8103.00
	-3.00	-9.00	5.00	-1.00	8129.00	8104.00
	0.00	-5.00	6.00	0.00	8129.00	8103.00
	0.00	-2.00	6.00	-2.00	8129.00	8104.00
	1.00	3.00	5.00	-2.00	8128.00	8103.00
	1.00	9.00	5.00	-1.00	8129.00	8104.00
	-3.00	14.00	7.00	-1.00	8129.00	8104.00
	-3.00	19.00	5.00	-6.00	8129.00	8104.00
	-6.00	25.00	6.00	-9.00	8129.00	8103.00
	-10.00	22.00	2.00	-8.00	8128.00	8103.00
	-9.00	13.00	1.00	1.00	8128.00	8104.00
	-9.00	-18.00	1.00	6.00	8128.00	8103.00
	-5.00	-22.00	-2.00	-1.00	8129.00	8104.00
	-3.00	-11.00	-11.00	-12.00	8128.00	8103.00
	1.00	-4.00	-15.00	-10.00	8129.00	8104.00
	0.00	0.00	-15.00	-8.00	8128.00	8103.00
	2.00	3.00	-15.00	-3.00	8129.00	8104.00
	-5.00	-20.00	-4.00	7.00	8128.00	8103.00
	-9.00	-40.00	7.00	18.00	8128.00	8103.00
	0.00	-53.00	6.00	27.00	8128.00	8103.00
	8.00	-51.00	3.00	29.00	8128.00	8103.00
	9.00	-26.00	3.00	11.00	8128.00	8103.00
	5.00	-8.00	7.00	1.00	8129.00	8104.00
	3.00	2.00	7.00	0.00	8129.00	8103.00
	2.00	14.00	8.00	-5.00	8128.00	8103.00
	0.00	33.00	5.00	-7.00	8128.00	8102.00
	-2.00	38.00	4.00	-6.00	8128.00	8103.00
	-6.00	38.00	1.00	-6.00	8128.00	8103.00
	-8.00	48.00	-3.00	-6.00	8129.00	8103.00
	-5.00	30.00	0.00	-5.00	8128.00	8103.00
	1.00	18.00	0.00	-9.00	8128.00	8103.00
	2.00	13.00	1.00	-9.00	8129.00	8104.00
	-2.00	4.00	-4.00	-10.00	8128.00	8102.00
	-4.00	-1.00	-3.00	-8.00	8129.00	8104.00
	-5.00	-4.00	-4.00	-7.00	8129.00	8103.00
	-4.00	-10.00	-7.00	-4.00	8128.00	8103.00
	-6.00	-13.00	-6.00	-4.00	8128.00	8103.00
	-11.00	-14.00	-5.00	-2.00	8127.00	8102.00
	-14.00	-16.00	-5.00	-1.00	8128.00	8103.00
	-9.00	-16.00	-3.00	0.00	8128.00	8103.00
	-4.00	-15.00	-4.00	-2.00	8128.00	8103.00
	1.00	-13.00	-2.00	0.00	8128.00	8103.00
	7.00	-11.00	0.00	-2.00	8128.00	8103.00
	11.00	-5.00	2.00	-2.00	8128.00	8103.00
	12.00	-3.00	3.00	0.00	8128.00	8102.00
	7.00	0.00	1.00	1.00	8128.00	8103.00
	4.00	5.00	2.00	1.00	8127.00	8103.00
	8.00	7.00	2.00	-1.00	8128.00	8103.00
	11.00	11.00	1.00	-4.00	8128.00	8102.00
	10.00	8.00	0.00	-6.00	8128.00	8103.00
	10.00	9.00	1.00	-6.00	8128.00	8103.00
	19.00	5.00	0.00	-4.00	8127.00	8102.00
	17.00	2.00	-4.00	-1.00	8129.00	8103.00
	6.00	-2.00	-4.00	3.00	8127.00	8103.00
	4.00	-4.00	-9.00	6.00	8127.00	8102.00
	0.00	-7.00	-10.00	8.00	8128.00	8104.00
	-9.00	-12.00	-11.00	8.00	8127.00	8103.00
	-11.00	-14.00	-7.00	10.00	8128.00	8104.00
	-8.00	-17.00	-6.00	4.00	8128.00	8104.00
	-13.00	-16.00	-4.00	-1.00	8128.00	8103.00
	-18.00	-11.00	-2.00	-5.00	8128.00	8103.00
	-22.00	-9.00	0.00	2.00	8128.00	8103.00
	-7.00	-6.00	3.00	3.00	8128.00	8103.00
	-2.00	-1.00	6.00	6.00	8128.00	8104.00
	-8.00	-7.00	13.00	2.00	8127.00	8103.00
	-2.00	-19.00	15.00	-4.00	8129.00	8103.00
	29.00	-17.00	13.00	-5.00	8130.00	8104.00
	23.00	-19.00	5.00	-8.00	8128.00	8103.00
	24.00	-22.00	-5.00	-7.00	8129.00	8103.00
	62.00	-5.00	-11.00	-7.00	8128.00	8103.00
	82.00	14.00	-10.00	3.00	8128.00	8104.00
	30.00	29.00	-9.00	8.00	8128.00	8103.00
	25.00	35.00	-6.00	11.00	8128.00	8104.00
	-22.00	37.00	-3.00	11.00	8127.00	8102.00
	-62.00	36.00	-3.00	10.00	8128.00	8104.00
	-81.00	31.00	-3.00	4.00	8128.00	8104.00
	-78.00	5.00	-5.00	7.00	8128.00	8103.00
	-78.00	-18.00	6.00	17.00	8128.00	8104.00
	-70.00	-26.00	16.00	5.00	8128.00	8104.00
	-73.00	-33.00	19.00	-12.00	8129.00	8104.00
	-67.00	-30.00	20.00	-36.00	8129.00	8103.00
	11.00	-7.00	14.00	-53.00	8129.00	8103.00
	53.00	9.00	9.00	-40.00	8128.00	8103.00
	46.00	11.00	7.00	-25.00	8128.00	8103.00
	31.00	8.00	6.00	-10.00	8128.00	8103.00
	13.00	7.00	4.00	3.00	8128.00	8104.00
	0.00	6.00	3.00	14.00	8128.00	8103.00
	-14.00	4.00	-2.00	16.00	8127.00	8103.00
	-24.00	3.00	0.00	14.00	8128.00	8104.00
	-18.00	0.00	-3.00	8.00	8128.00	8104.00
	-18.00	-1.00	-7.00	-6.00	8128.00	8103.00
	-31.00	1.00	-7.00	-18.00	8129.00	8104.00
	-11.00	0.00	-7.00	-7.00	8128.00	8103.00
	5.00	-3.00	-10.00	-1.00	8129.00	8104.00
	9.00	-8.00	-12.00	1.00	8129.00	8104.00
	11.00	-11.00	-14.00	4.00	8128.00	8104.00
	12.00	-16.00	-15.00	6.00	8128.00	8103.00
	5.00	-19.00	-17.00	9.00	8127.00	8103.00
	-11.00	-18.00	-17.00	10.00	8128.00	8103.00
	-7.00	-17.00	-17.00	5.00	8127.00	8103.00
	3.00	-14.00	-14.00	4.00	8127.00	8103.00
	5.00	-13.00	-11.00	6.00	8128.00	8104.00
	20.00	-6.00	-8.00	3.00	8127.00	8102.00
	39.00	-1.00	-7.00	4.00	8129.00	8104.00
	56.00	2.00	-6.00	5.00	8128.00	8103.00
	41.00	4.00	-5.00	8.00	8127.00	8103.00
	7.00	5.00	-3.00	8.00	8127.00	8102.00
	-28.00	10.00	1.00	7.00	8127.00	8103.00
	-34.00	10.00	2.00	0.00	8128.00	8102.00
	-31.00	7.00	3.00	-4.00	8128.00	8103.00
	-11.00	7.00	3.00	-5.00	8129.00	8103.00
	-7.00	3.00	5.00	-10.00	8128.00	8103.00
	9.00	0.00	6.00	-13.00	8128.00	8103.00
	29.00	-6.00	3.00	-18.00	8129.00	8104.00
	38.00	-6.00	-2.00	-15.00	8128.00	8103.00
	42.00	-7.00	-4.00	-21.00	8129.00	8103.00
	45.00	-9.00	-6.00	-17.00	8128.00	8103.00
	65.00	-9.00	-4.00	-12.00	8128.00	8103.00
	58.00	-12.00	-3.00	-6.00	8128.00	8103.00
	31.00	-13.00	-3.00	3.00	8127.00	8103.00
	1.00	-11.00	0.00	7.00	8127.00	8103.00
	-25.00	-9.00	3.00	7.00	8127.00	8103.00
	-40.00	-1.00	4.00	3.00	8128.00	8103.00
	-50.00	2.00	6.00	1.00	8128.00	8104.00
	-39.00	4.00	6.00	-12.00	8128.00	8103.00
	-21.00	11.00	8.00	-17.00	8128.00	8102.00
	-22.00	17.00	10.00	-23.00	8128.00	8103.00
	-14.00	17.00	11.00	-19.00	8130.00	8104.00
	-15.00	15.00	11.00	-10.00	8129.00	8104.00
	11.00	7.00	10.00	0.00	8128.00	8103.00
	21.00	4.00	8.00	8.00	8128.00	8103.00
	3.00	3.00	7.00	13.00	8128.00	8103.00
	-10.00	1.00	6.00	9.00	8128.00	8103.00
	-26.00	-3.00	8.00	7.00	8127.00	8103.00
	-28.00	-4.00	9.00	4.00	8128.00	8104.00
	-21.00	-10.00	10.00	0.00	8128.00	8103.00
	-19.00	-14.00	6.00	-1.00	8128.00	8103.00
	-30.00	-13.00	5.00	-3.00	8129.00	8103.00
	-31.00	-13.00	0.00	-4.00	8129.00	8104.00
	19.00	-13.00	-9.00	-7.00	8129.00	8103.00
	83.00	-10.00	-17.00	0.00	8129.00	8104.00
	68.00	-5.00	-24.00	1.00	8128.00	8103.00
	33.00	4.00	-27.00	-2.00	8128.00	8103.00
	34.00	18.00	-29.00	2.00	8128.00	8104.00
	46.00	22.00	-29.00	2.00	8128.00	8104.00
	31.00	23.00	-29.00	5.00	8128.00	8104.00
	-39.00	17.00	-26.00	10.00	8128.00	8104.00
	-92.00	4.00	-26.00	13.00	8129.00	8104.00
	-139.00	-9.00	-23.00	12.00	8127.00	8103.00
	-154.00	-19.00	-19.00	18.00	8128.00	8103.00
	-104.00	-24.00	-14.00	23.00	8128.00	8104.00
	-67.00	-18.00	-6.00	7.00	8128.00	8103.00
	-55.00	-16.00	-2.00	-13.00	8129.00	8103.00
	-35.00	-22.00	-4.00	-17.00	8128.00	8103.00
	18.00	-15.00	-5.00	-21.00	8129.00	8103.00
	67.00	-7.00	0.00	-15.00	8129.00	8104.00
	112.00	-6.00	3.00	-9.00	8128.00	8103.00
	117.00	-2.00	9.00	-6.00	8128.00	8103.00
	84.00	-9.00	13.00	-2.00	8129.00	8104.00
	76.00	-7.00	15.00	-6.00	8128.00	8103.00
	58.00	-2.00	19.00	-6.00	8129.00	8104.00
	24.00	-1.00	24.00	-2.00	8129.00	8103.00
	-15.00	3.00	21.00	2.00	8129.00	8104.00
	-29.00	5.00	14.00	4.00	8128.00	8104.00
	-35.00	6.00	16.00	2.00	8128.00	8103.00
	-18.00	12.00	15.00	1.00	8127.00	8102.00
	-9.00	12.00	15.00	6.00	8128.00	8104.00
	-11.00	11.00	17.00	3.00	8128.00	8104.00
	-17.00	14.00	13.00	-4.00	8128.00	8103.00
	-24.00	15.00	11.00	-7.00	8128.00	8103.00
	2.00	16.00	9.00	-7.00	8128.00	8103.00
	27.00	12.00	7.00	-3.00	8129.00	8103.00
	34.00	6.00	1.00	0.00	8127.00	8102.00
	30.00	2.00	-2.00	6.00	8127.00	8103.00
	-6.00	-1.00	-4.00	12.00	8128.00	8103.00
	-12.00	-4.00	-11.00	9.00	8127.00	8102.00
	-9.00	-6.00	-18.00	5.00	8127.00	8103.00
	11.00	-12.00	-17.00	6.00	8128.00	8103.00
	31.00	-16.00	-18.00	6.00	8128.00	8103.00
	43.00	-16.00	-14.00	2.00	8127.00	8102.00
	34.00	-14.00	-11.00	6.00	8127.00	8103.00
	33.00	-9.00	-4.00	2.00	8127.00	8103.00
	32.00	-6.00	20.00	-8.00	8127.00	8102.00
	43.00	1.00	45.00	-8.00	8128.00	8103.00
	37.00	7.00	22.00	-7.00	8129.00	8103.00
	25.00	11.00	20.00	-11.00	8128.00	8104.00
	19.00	10.00	19.00	-11.00	8128.00	8103.00
	22.00	13.00	14.00	-11.00	8128.00	8103.00
	8.00	12.00	7.00	-7.00	8128.00	8103.00
	-6.00	12.00	1.00	-1.00	8128.00	8103.00
	-21.00	8.00	-5.00	3.00	8128.00	8103.00
	-33.00	4.00	-9.00	3.00	8128.00	8103.00
	-42.00	-2.00	-11.00	-1.00	8129.00	8104.00
	-41.00	-5.00	-9.00	-2.00	8129.00	8104.00
	-14.00	-5.00	-10.00	1.00	8129.00	8104.00
	-9.00	-10.00	-11.00	6.00	8128.00	8103.00
	-28.00	-11.00	-11.00	11.00	8128.00	8104.00
	-36.00	-12.00	-14.00	16.00	8128.00	8104.00
	-37.00	-14.00	-20.00	17.00	8128.00	8103.00
	-29.00	-11.00	-22.00	17.00	8129.00	8104.00
	-5.00	-11.00	-23.00	15.00	8128.00	8104.00
	42.00	-12.00	-28.00	12.00	8128.00	8103.00
	27.00	-10.00	-29.00	7.00	8128.00	8103.00
	2.00	-2.00	-27.00	-7.00	8128.00	8103.00
	-5.00	4.00	-27.00	2.00	8128.00	8103.00
	-53.00	4.00	-27.00	5.00	8128.00	8104.00
	-82.00	-12.00	-40.00	6.00	8128.00	8104.00
	-87.00	-12.00	-49.00	-6.00	8129.00	8103.00
	-92.00	-1.00	-44.00	-18.00	8129.00	8103.00
	-84.00	6.00	-40.00	-21.00	8128.00	8103.00
	-75.00	12.00	-24.00	-31.00	8128.00	8103.00
	-62.00	12.00	-9.00	-19.00	8128.00	8103.00
	-48.00	8.00	19.00	-20.00	8129.00	8104.00
	-24.00	5.00	44.00	-24.00	8129.00	8104.00
	21.00	-3.00	64.00	-8.00	8128.00	8103.00
	47.00	-3.00	32.00	-2.00	8129.00	8103.00
	62.00	-1.00	26.00	-3.00	8129.00	8103.00
	59.00	-4.00	22.00	-1.00	8128.00	8103.00
	49.00	-4.00	24.00	0.00	8129.00	8104.00
	42.00	9.00	21.00	-6.00	8128.00	8103.00
	5.00	18.00	30.00	-6.00	8129.00	8103.00
	-24.00	11.00	34.00	-8.00	8128.00	8102.00
	-36.00	3.00	34.00	-8.00	8128.00	8103.00
	-22.00	-29.00	30.00	-3.00	8128.00	8102.00
	2.00	-34.00	19.00	3.00	8127.00	8102.00
	15.00	-24.00	14.00	5.00	8127.00	8103.00
	30.00	-12.00	18.00	18.00	8127.00	8102.00
	44.00	-3.00	19.00	24.00	8127.00	8102.00
	46.00	4.00	23.00	12.00	8127.00	8103.00
	63.00	13.00	30.00	-4.00	8128.00	8103.00
	70.00	25.00	26.00	-21.00	8128.00	8103.00
	58.00	21.00	21.00	-20.00	8128.00	8103.00
	25.00	12.00	11.00	-15.00	8129.00	8103.00
	16.00	4.00	-7.00	-4.00	8129.00	8104.00
	9.00	3.00	-25.00	-7.00	8128.00	8103.00
	2.00	2.00	-20.00	-2.00	8128.00	8102.00
	-16.00	-8.00	1.00	20.00	8127.00	8103.00
	-10.00	-17.00	-5.00	37.00	8127.00	8103.00
	20.00	-23.00	-13.00	35.00	8128.00	8103.00
	24.00	-22.00	-17.00	19.00	8127.00	8102.00
	33.00	-18.00	-14.00	-2.00	8129.00	8104.00
	52.00	-11.00	-12.00	-18.00	8129.00	8104.00
	53.00	-5.00	-7.00	-19.00	8129.00	8104.00
	9.00	-2.00	0.00	-11.00	8128.00	8103.00
	21.00	1.00	7.00	4.00	8128.00	8103.00
	-14.00	-4.00	3.00	15.00	8128.00	8104.00
	-65.00	-8.00	-2.00	26.00	8128.00	8104.00
	-91.00	-4.00	-5.00	25.00	8128.00	8103.00
	-113.00	1.00	-3.00	14.00	8127.00	8103.00
	-104.00	1.00	-5.00	-10.00	8129.00	8104.00
	-72.00	13.00	3.00	-43.00	8128.00	8102.00
	23.00	21.00	7.00	-61.00	8128.00	8103.00
	92.00	23.00	-2.00	-75.00	8129.00	8104.00
	133.00	19.00	-15.00	-60.00	8129.00	8103.00
	161.00	13.00	-35.00	-21.00	8128.00	8103.00
	100.00	13.00	-63.00	-2.00	8128.00	8103.00
	16.00	4.00	-68.00	7.00	8128.00	8103.00
	-49.00	-14.00	-65.00	7.00	8128.00	8103.00
	-115.00	-19.00	-60.00	8.00	8128.00	8104.00
	-161.00	-34.00	-54.00	7.00	8128.00	8104.00
	-178.00	-49.00	-31.00	2.00	8128.00	8103.00
	-193.00	-61.00	37.00	-1.00	8128.00	8103.00
	-167.00	-47.00	55.00	-30.00	8128.00	8103.00
	-115.00	-16.00	51.00	-51.00	8128.00	8103.00
	-42.00	-3.00	25.00	-44.00	8128.00	8103.00
	45.00	0.00	59.00	-10.00	8128.00	8102.00
	78.00	1.00	114.00	19.00	8127.00	8103.00
	59.00	10.00	50.00	37.00	8129.00	8104.00
	85.00	29.00	33.00	34.00	8128.00	8103.00
	11.00	33.00	25.00	19.00	8128.00	8103.00
	-58.00	36.00	17.00	3.00	8128.00	8103.00
	-70.00	54.00	10.00	-1.00	8128.00	8103.00
	-79.00	46.00	8.00	2.00	8128.00	8104.00
	-55.00	24.00	-5.00	11.00	8128.00	8104.00
	-7.00	3.00	-30.00	16.00	8128.00	8104.00
	15.00	-8.00	-32.00	18.00	8128.00	8104.00
	41.00	-24.00	-39.00	23.00	8128.00	8103.00
	76.00	-61.00	-43.00	20.00	8128.00	8102.00
	141.00	-79.00	-55.00	-5.00	8129.00	8104.00
	184.00	-74.00	-67.00	-54.00	8128.00	8103.00
	178.00	-52.00	-72.00	-94.00	8128.00	8103.00
	100.00	-21.00	-60.00	-133.00	8128.00	8103.00
	51.00	4.00	-91.00	-135.00	8128.00	8102.00
	37.00	20.00	11.00	-81.00	8128.00	8103.00
	33.00	32.00	71.00	-12.00	8128.00	8102.00
	21.00	25.00	-13.00	66.00	8127.00	8102.00
	4.00	38.00	-15.00	136.00	8128.00	8102.00
	-15.00	35.00	52.00	136.00	8128.00	8103.00
	-14.00	30.00	16.00	100.00	8128.00	8102.00
	2.00	37.00	34.00	82.00	8128.00	8103.00
	31.00	45.00	60.00	50.00	8127.00	8103.00
	40.00	36.00	84.00	35.00	8127.00	8103.00
	42.00	27.00	170.00	18.00	8127.00	8103.00
	79.00	27.00	87.00	8.00	8128.00	8103.00
	70.00	22.00	41.00	-16.00	8128.00	8103.00
	80.00	-31.00	-14.00	-50.00	8129.00	8103.00
	81.00	-68.00	-153.00	-72.00	8129.00	8104.00
	41.00	-24.00	-210.00	-96.00	8128.00	8104.00
	3.00	3.00	-260.00	-99.00	8128.00	8104.00
	-36.00	44.00	-270.00	-108.00	8128.00	8103.00
	-42.00	57.00	-244.00	-51.00	8128.00	8103.00
	-5.00	37.00	-37.00	90.00	8128.00	8103.00
	-28.00	-6.00	200.00	200.00	8128.00	8104.00
	-67.00	-57.00	248.00	232.00	8130.00	8104.00
	-120.00	-74.00	248.00	226.00	8129.00	8103.00
	-188.00	-58.00	195.00	165.00	8129.00	8103.00
	-242.00	-48.00	175.00	57.00	8127.00	8103.00
	-237.00	-40.00	128.00	-12.00	8129.00	8103.00
	-185.00	-21.00	94.00	-42.00	8129.00	8104.00
	-133.00	-13.00	59.00	-52.00	8128.00	8104.00
	-83.00	-20.00	41.00	-48.00	8128.00	8103.00
	-81.00	-35.00	35.00	-63.00	8129.00	8104.00
	-61.00	-29.00	22.00	-73.00	8128.00	8103.00
	-40.00	-26.00	6.00	-67.00	8128.00	8103.00
	12.00	-12.00	-28.00	-69.00	8128.00	8103.00
	81.00	-4.00	-46.00	-73.00	8128.00	8104.00
	110.00	0.00	-72.00	-62.00	8128.00	8103.00
	60.00	13.00	-115.00	-79.00	8128.00	8103.00
	38.00	45.00	-236.00	-138.00	8128.00	8104.00
	63.00	86.00	-304.00	-174.00	8128.00	8103.00
	16.00	70.00	-297.00	-167.00	8128.00	8103.00
	-48.00	12.00	-287.00	-126.00	8129.00	8104.00
	5.00	-49.00	-186.00	-55.00	8128.00	8103.00
	44.00	-32.00	-89.00	38.00	8128.00	8104.00
	59.00	-18.00	129.00	166.00	8128.00	8103.00
	91.00	19.00	341.00	206.00	8128.00	8103.00
	85.00	16.00	245.00	195.00	8129.00	8103.00
	68.00	-23.00	146.00	150.00	8128.00	8103.00
	81.00	-126.00	85.00	133.00	8128.00	8103.00
	39.00	-147.00	84.00	94.00	8128.00	8103.00
	-2.00	-105.00	101.00	50.00	8128.00	8103.00
	5.00	-23.00	131.00	-4.00	8128.00	8103.00
	50.00	35.00	90.00	-24.00	8129.00	8103.00
	43.00	41.00	59.00	-25.00	8128.00	8102.00
	30.00	77.00	37.00	-54.00	8129.00	8103.00
	-3.00	99.00	-8.00	-145.00	8128.00	8103.00
	-8.00	122.00	-137.00	-301.00	8127.00	8103.00
	62.00	171.00	-272.00	-365.00	8127.00	8103.00
	190.00	213.00	-315.00	-354.00	8127.00	8103.00
	144.00	191.00	-289.00	-311.00	8127.00	8104.00
	5.00	134.00	-180.00	-184.00	8127.00	8102.00
	-39.00	89.00	-160.00	10.00	8127.00	8103.00
	-31.00	79.00	-136.00	208.00	8128.00	8103.00
	-54.00	52.00	-2.00	270.00	8129.00	8103.00
	18.00	21.00	-59.00	76.00	8128.00	8103.00
	51.00	-7.00	-233.00	-38.00	8128.00	8103.00
	76.00	-73.00	-300.00	13.00	8127.00	8103.00
	-68.00	-184.00	-144.00	198.00	8128.00	8103.00
	-205.00	-318.00	342.00	330.00	8129.00	8103.00
	-245.00	-374.00	612.00	432.00	8128.00	8103.00
	-163.00	-390.00	692.00	549.00	8128.00	8103.00
	-84.00	-306.00	525.00	445.00	8129.00	8103.00
	-60.00	-162.00	315.00	258.00	8128.00	8103.00
	-15.00	-98.00	195.00	131.00	8128.00	8103.00
	-65.00	-39.00	167.00	28.00	8128.00	8104.00
	-149.00	-19.00	175.00	-13.00	8128.00	8102.00
	-141.00	46.00	158.00	-98.00	8127.00	8103.00
	-117.00	108.00	127.00	-163.00	8128.00	8103.00
	-24.00	134.00	63.00	-180.00	8128.00	8104.00
	57.00	145.00	-7.00	-167.00	8128.00	8103.00
	81.00	132.00	-63.00	-148.00	8128.00	8103.00
	82.00	108.00	-110.00	-144.00	8128.00	8103.00
	85.00	93.00	-126.00	-152.00	8128.00	8103.00
	82.00	77.00	-146.00	-155.00	8128.00	8103.00
	101.00	68.00	-186.00	-156.00	8128.00	8104.00
	99.00	64.00	-239.00	-145.00	8128.00	8104.00
	74.00	-16.00	-275.00	-152.00	8129.00	8104.00
	99.00	3.00	-279.00	-167.00	8128.00	8103.00
	136.00	48.00	-257.00	-113.00	8129.00	8104.00
	108.00	87.00	-120.00	-49.00	8128.00	8103.00
	65.00	99.00	23.00	5.00	8128.00	8103.00
	8.00	103.00	-20.00	23.00	8127.00	8103.00
	-15.00	68.00	19.00	83.00	8129.00	8104.00
	-69.00	17.00	51.00	99.00	8128.00	8103.00
	-82.00	-31.00	55.00	70.00	8127.00	8103.00
	-56.00	-105.00	4.00	25.00	8128.00	8104.00
	-84.00	-128.00	-24.00	3.00	8127.00	8103.00
	-51.00	-123.00	-4.00	11.00	8128.00	8103.00
	-24.00	-114.00	3.00	-2.00	8128.00	8103.00
	0.00	-103.00	-48.00	-39.00	8128.00	8102.00
	3.00	-49.00	-232.00	-78.00	8127.00	8102.00
	44.00	32.00	-355.00	-167.00	8127.00	8103.00
	100.00	111.00	-437.00	-248.00	8127.00	8103.00
	160.00	130.00	-412.00	-363.00	8126.00	8102.00
	187.00	68.00	-369.00	-275.00	8127.00	8102.00
	177.00	56.00	-201.00	-112.00	8128.00	8102.00
	89.00	80.00	78.00	-102.00	8127.00	8102.00
	26.00	-11.00	187.00	-103.00	8127.00	8103.00
	34.00	84.00	56.00	-48.00	8128.00	8102.00
	49.00	20.00	18.00	43.00	8127.00	8102.00
	-69.00	19.00	126.00	179.00	8128.00	8102.00
	-186.00	66.00	423.00	304.00	8129.00	8103.00
	-302.00	54.00	477.00	491.00	8129.00	8103.00
	-305.00	36.00	460.00	588.00	8128.00	8102.00
	-227.00	-72.00	382.00	514.00	8128.00	8102.00
	-166.00	-162.00	293.00	458.00	8128.00	8102.00
	-115.00	-208.00	318.00	324.00	8128.00	8102.00
	-156.00	-204.00	321.00	212.00	8128.00	8103.00
	-114.00	-168.00	289.00	76.00	8128.00	8104.00
	-8.00	-107.00	202.00	9.00	8127.00	8103.00
	21.00	-91.00	125.00	-71.00	8128.00	8103.00
	33.00	-74.00	55.00	-141.00	8128.00	8104.00
	32.00	-31.00	12.00	-141.00	8128.00	8104.00
	29.00	9.00	-12.00	-120.00	8128.00	8103.00
	41.00	38.00	-13.00	-121.00	8128.00	8103.00
	54.00	64.00	-90.00	-173.00	8128.00	8103.00
	40.00	77.00	-143.00	-216.00	8128.00	8103.00
	38.00	86.00	-283.00	-249.00	8128.00	8104.00
	78.00	109.00	-384.00	-266.00	8128.00	8104.00
	96.00	140.00	-425.00	-318.00	8127.00	8103.00
	60.00	139.00	-488.00	-247.00	8128.00	8103.00
	95.00	145.00	-288.00	-147.00	8129.00	8104.00
	130.00	128.00	-135.00	-114.00	8128.00	8103.00
	124.00	92.00	-186.00	-62.00	8128.00	8103.00
	114.00	2.00	-58.00	-10.00	8128.00	8103.00
	50.00	-60.00	68.00	16.00	8128.00	8104.00
	15.00	-76.00	140.00	62.00	8128.00	8104.00
	-67.00	-81.00	234.00	123.00	8128.00	8104.00
	-179.00	-175.00	50.00	127.00	8129.00	8104.00
	-143.00	-259.00	4.00	128.00	8128.00	8103.00
	-125.00	-244.00	78.00	150.00	8129.00	8104.00
	-90.00	-202.00	84.00	198.00	8129.00	8104.00
	-57.00	-155.00	170.00	211.00	8128.00	8103.00
	-57.00	-87.00	238.00	189.00	8128.00	8104.00
	-26.00	-27.00	209.00	120.00	8128.00	8103.00
	18.00	84.00	117.00	16.00	8128.00	8103.00
	110.00	193.00	-39.00	-68.00	8129.00	8103.00
	205.00	244.00	-102.00	-105.00	8128.00	8103.00
	260.00	145.00	-318.00	-223.00	8128.00	8103.00
	324.00	169.00	-687.00	-550.00	8128.00	8103.00
	371.00	284.00	-910.00	-812.00	8127.00	8103.00
	247.00	362.00	-870.00	-814.00	8127.00	8103.00
	99.00	307.00	-864.00	-707.00	8128.00	8103.00
	64.00	38.00	-597.00	-360.00	8127.00	8103.00
	39.00	-137.00	303.00	201.00	8128.00	8103.00
	-69.00	-205.00	971.00	774.00	8129.00	8104.00
	-154.00	-219.00	1175.00	962.00	8129.00	8103.00
	-271.00	-187.00	785.00	883.00	8129.00	8103.00
	-303.00	-165.00	576.00	656.00	8129.00	8104.00
	-281.00	-148.00	505.00	426.00	8129.00	8104.00
	-260.00	-118.00	426.00	241.00	8129.00	8104.00
	-242.00	-119.00	306.00	217.00	8128.00	8103.00
	-232.00	-121.00	308.00	228.00	8128.00	8103.00
	-166.00	-88.00	319.00	190.00	8129.00	8103.00
	-59.00	31.00	204.00	66.00	8128.00	8103.00
	-3.00	105.00	96.00	-30.00	8128.00	8103.00
	50.00	86.00	16.00	-66.00	8128.00	8103.00
	38.00	51.00	-48.00	-136.00	8127.00	8102.00
	37.00	45.00	-94.00	-163.00	8128.00	8103.00
	49.00	40.00	-124.00	-167.00	8128.00	8102.00
	58.00	35.00	-157.00	-161.00	8129.00	8103.00
	60.00	36.00	-179.00	-151.00	8128.00	8103.00
	73.00	28.00	-186.00	-150.00	8128.00	8104.00
	62.00	17.00	-214.00	-142.00	8128.00	8102.00
	49.00	16.00	-251.00	-143.00	8127.00	8102.00
	63.00	20.00	-295.00	-162.00	8128.00	8104.00
	90.00	26.00	-343.00	-152.00	8128.00	8103.00
	93.00	12.00	-412.00	-158.00	8127.00	8102.00
	103.00	26.00	-362.00	-190.00	8127.00	8103.00
	149.00	33.00	-181.00	-265.00	8128.00	8103.00
	142.00	20.00	1.00	-306.00	8126.00	8102.00
	133.00	-47.00	74.00	-252.00	8127.00	8103.00
	90.00	-72.00	87.00	-117.00	8128.00	8102.00
	43.00	-43.00	11.00	52.00	8128.00	8103.00
	-7.00	-26.00	-63.00	202.00	8128.00	8102.00
	-72.00	-19.00	-17.00	315.00	8129.00	8103.00
	-136.00	-31.00	13.00	284.00	8128.00	8103.00
	-162.00	-44.00	13.00	174.00	8127.00	8102.00
	-158.00	-61.00	30.00	117.00	8128.00	8103.00
	-172.00	-42.00	53.00	94.00	8127.00	8103.00
	-164.00	-9.00	34.00	54.00	8127.00	8102.00
	-131.00	22.00	-22.00	-32.00	8128.00	8103.00
	-90.00	73.00	-45.00	-104.00	8128.00	8103.00
	-31.00	111.00	-183.00	-154.00	8128.00	8104.00
	12.00	80.00	-354.00	-228.00	8128.00	8104.00
	66.00	151.00	-443.00	-330.00	8127.00	8103.00
	-3.00	200.00	-269.00	-327.00	8128.00	8104.00
	-95.00	40.00	-360.00	-239.00	8128.00	8103.00
	42.00	-146.00	-253.00	-348.00	8127.00	8103.00
	105.00	-130.00	61.00	-262.00	8127.00	8103.00
	104.00	-89.00	191.00	84.00	8129.00	8105.00
	85.00	-104.00	220.00	307.00	8129.00	8104.00
	10.00	-125.00	246.00	396.00	8129.00	8104.00
	2.00	-23.00	425.00	496.00	8129.00	8103.00
	-45.00	-37.00	489.00	644.00	8129.00	8103.00
	-129.00	-116.00	334.00	619.00	8129.00	8103.00
	-160.00	-116.00	329.00	403.00	8129.00	8104.00
	-138.00	-12.00	311.00	162.00	8129.00	8104.00
	-20.00	106.00	329.00	-44.00	8128.00	8103.00
	47.00	148.00	277.00	-143.00	8128.00	8103.00
	111.00	132.00	252.00	-141.00	8128.00	8103.00
	180.00	101.00	193.00	-154.00	8127.00	8103.00
	174.00	69.00	106.00	-139.00	8129.00	8104.00
	95.00	7.00	63.00	-121.00	8128.00	8104.00
	63.00	-33.00	2.00	-121.00	8128.00	8103.00
	32.00	-54.00	-76.00	-150.00	8129.00	8104.00
	54.00	-24.00	-220.00	-196.00	8128.00	8103.00
	165.00	38.00	-428.00	-302.00	8127.00	8103.00
	191.00	40.00	-526.00	-392.00	8127.00	8103.00
	112.00	-44.00	-521.00	-336.00	8127.00	8103.00
	8.00	-203.00	-383.00	-203.00	8128.00	8103.00
	-14.00	-217.00	-116.00	-16.00	8129.00	8103.00
	-25.00	-110.00	219.00	169.00	8128.00	8103.00
	-96.00	0.00	495.00	190.00	8128.00	8104.00
	-73.00	148.00	209.00	137.00	8128.00	8103.00
	-35.00	193.00	-19.00	46.00	8127.00	8103.00
	-21.00	108.00	-110.00	35.00	8128.00	8103.00
	-78.00	-20.00	-81.00	62.00	8128.00	8103.00
	-245.00	-91.00	21.00	185.00	8128.00	8103.00
	-176.00	-120.00	75.00	307.00	8129.00	8103.00
	-56.00	-131.00	94.00	320.00	8129.00	8103.00
	26.00	-84.00	113.00	190.00	8128.00	8103.00
	22.00	-8.00	92.00	72.00	8127.00	8103.00
	-4.00	51.00	72.00	-17.00	8128.00	8102.00
	-8.00	71.00	70.00	1.00	8128.00	8102.00
	-10.00	86.00	46.00	-15.00	8128.00	8103.00
	-11.00	116.00	-2.00	-71.00	8128.00	8103.00
	-8.00	119.00	-97.00	-164.00	8128.00	8103.00
	20.00	125.00	-279.00	-200.00	8128.00	8103.00
	110.00	139.00	-453.00	-250.00	8127.00	8102.00
	210.00	74.00	-518.00	-306.00	8127.00	8103.00
	335.00	118.00	-397.00	-436.00	8126.00	8103.00
	272.00	180.00	-133.00	-361.00	8126.00	8102.00
	98.00	218.00	52.00	-195.00	8128.00	8103.00
	-6.00	159.00	268.00	-15.00	8128.00	8102.00
	-60.00	16.00	424.00	257.00	8128.00	8103.00
	-139.00	-91.00	341.00	480.00	8129.00	8103.00
	-226.00	-139.00	268.00	512.00	8129.00	8104.00
	-280.00	-196.00	145.00	433.00	8129.00	8103.00
	-253.00	-270.00	81.00	333.00	8129.00	8104.00
	-201.00	-288.00	75.00	251.00	8129.00	8104.00
	-218.00	-257.00	92.00	135.00	8128.00	8104.00
	-214.00	-185.00	97.00	30.00	8128.00	8103.00
	-160.00	-110.00	86.00	-27.00	8129.00	8103.00
	-58.00	-42.00	53.00	-72.00	8128.00	8103.00
	-24.00	-9.00	11.00	-84.00	8128.00	8103.00
	-42.00	-32.00	-26.00	-79.00	8129.00	8104.00
	11.00	-41.00	-51.00	-88.00	8129.00	8104.00
	72.00	-37.00	-70.00	-84.00	8128.00	8103.00
	111.00	-38.00	-85.00	-75.00	8128.00	8103.00
	142.00	-29.00	-106.00	-65.00	8129.00	8104.00
	149.00	-5.00	-116.00	-80.00	8128.00	8103.00
	155.00	43.00	-179.00	-65.00	8128.00	8103.00
	163.00	104.00	-172.00	-176.00	8128.00	8103.00
	44.00	153.00	-280.00	-323.00	8126.00	8102.00
	109.00	169.00	-388.00	-387.00	8127.00	8103.00
	235.00	280.00	-398.00	-348.00	8127.00	8103.00
	173.00	296.00	-287.00	-250.00	8129.00	8104.00
	61.00	148.00	-157.00	-8.00	8129.00	8104.00
	81.00	-158.00	-5.00	204.00	8127.00	8102.00
	81.00	-310.00	369.00	261.00	8129.00	8103.00
	38.00	-270.00	345.00	235.00	8129.00	8104.00
	-18.00	-147.00	170.00	242.00	8128.00	8102.00
	-84.00	-93.00	73.00	227.00	8129.00	8104.00
	-115.00	-67.00	97.00	222.00	8129.00	8103.00
	-90.00	-55.00	138.00	187.00	8128.00	8103.00
	-96.00	-76.00	200.00	176.00	8128.00	8103.00
	-137.00	-95.00	250.00	157.00	8128.00	8103.00
	-164.00	-111.00	289.00	102.00	8128.00	8102.00
	-161.00	5.00	290.00	-22.00	8129.00	8104.00
	-113.00	138.00	216.00	-140.00	8128.00	8103.00
	-19.00	176.00	135.00	-177.00	8128.00	8103.00
	-2.00	206.00	71.00	-173.00	8127.00	8103.00
	0.00	237.00	15.00	-155.00	8128.00	8103.00
	36.00	196.00	-50.00	-153.00	8128.00	8103.00
	-13.00	170.00	-99.00	-151.00	8128.00	8104.00
	-36.00	172.00	-259.00	-141.00	8128.00	8103.00
	-8.00	105.00	-395.00	-170.00	8128.00	8103.00
	50.00	-31.00	-415.00	-286.00	8127.00	8102.00
	146.00	-55.00	-499.00	-333.00	8127.00	8103.00
	204.00	-21.00	-629.00	-257.00	8127.00	8103.00
	201.00	23.00	-433.00	-118.00	8128.00	8102.00
	149.00	-79.00	117.00	16.00	8128.00	8103.00
	35.00	-133.00	448.00	199.00	8128.00	8103.00
	-33.00	-162.00	269.00	344.00	8129.00	8103.00
	-105.00	-144.00	223.00	419.00	8129.00	8103.00
	-132.00	-104.00	258.00	400.00	8127.00	8102.00
	-159.00	3.00	228.00	254.00	8128.00	8103.00
	-219.00	83.00	323.00	146.00	8128.00	8103.00
	-140.00	92.00	227.00	88.00	8128.00	8103.00
	-80.00	93.00	126.00	5.00	8128.00	8103.00
	-74.00	88.00	-54.00	-115.00	8127.00	8102.00
	-20.00	20.00	-168.00	-122.00	8128.00	8104.00
	-36.00	-31.00	-180.00	-153.00	8128.00	8103.00
	18.00	-37.00	-215.00	-228.00	8128.00	8103.00
	101.00	-30.00	-213.00	-225.00	8127.00	8102.00
	176.00	13.00	-60.00	-175.00	8127.00	8102.00
	142.00	35.00	324.00	-62.00	8128.00	8103.00
	96.00	78.00	134.00	21.00	8128.00	8103.00
	-93.00	142.00	-116.00	114.00	8128.00	8103.00
	-123.00	221.00	-203.00	41.00	8129.00	8104.00
	25.00	265.00	-376.00	-46.00	8128.00	8103.00
	148.00	194.00	-354.00	-124.00	8128.00	8103.00
	65.00	-1.00	-132.00	-52.00	8128.00	8103.00
	20.00	-213.00	235.00	92.00	8128.00	8104.00
	38.00	-374.00	325.00	428.00	8130.00	8104.00
	-17.00	-537.00	370.00	469.00	8129.00	8103.00
	-100.00	-512.00	358.00	341.00	8130.00	8103.00
	-130.00	-430.00	333.00	130.00	8128.00	8103.00
	-72.00	-276.00	183.00	70.00	8128.00	8104.00
	79.00	-125.00	160.00	101.00	8128.00	8103.00
	186.00	-39.00	115.00	64.00	8128.00	8103.00
	175.00	62.00	53.00	-24.00	8129.00	8104.00
	117.00	185.00	8.00	-123.00	8129.00	8104.00
	101.00	214.00	-20.00	-148.00	8128.00	8103.00
	81.00	231.00	-36.00	-159.00	8127.00	8103.00
	232.00	243.00	-69.00	-154.00	8128.00	8104.00
	327.00	288.00	-121.00	-170.00	8129.00	8104.00
	366.00	106.00	-279.00	-199.00	8128.00	8103.00
	298.00	34.00	-488.00	-260.00	8128.00	8103.00
	99.00	50.00	-495.00	-531.00	8128.00	8103.00
	-110.00	47.00	-605.00	-756.00	8127.00	8103.00
	-146.00	140.00	-664.00	-687.00	8128.00	8103.00
	-203.00	194.00	-278.00	-433.00	8127.00	8103.00
	-191.00	110.00	66.00	-108.00	8128.00	8103.00
	-142.00	-26.00	173.00	383.00	8129.00	8103.00
	-158.00	-213.00	256.00	890.00	8129.00	8103.00
	-183.00	-459.00	345.00	1017.00	8130.00	8103.00
	-295.00	-532.00	427.00	865.00	8130.00	8103.00
	-332.00	-392.00	458.00	563.00	8128.00	8103.00
	-297.00	-286.00	449.00	223.00	8128.00	8103.00
	-291.00	-195.00	370.00	45.00	8128.00	8103.00
	-347.00	-39.00	361.00	-32.00	8129.00	8103.00
	-319.00	103.00	285.00	-44.00	8127.00	8103.00
	-343.00	282.00	93.00	-174.00	8129.00	8104.00
	-228.00	417.00	-81.00	-304.00	8127.00	8103.00
	-65.00	438.00	-213.00	-344.00	8127.00	8103.00
	149.00	366.00	-205.00	-293.00	8127.00	8103.00
	187.00	227.00	-265.00	-255.00	8128.00	8103.00
	208.00	154.00	-745.00	-352.00	8127.00	8103.00
	215.00	95.00	-815.00	-507.00	8126.00	8103.00
	353.00	215.00	-900.00	-756.00	8128.00	8103.00
	402.00	313.00	-984.00	-778.00	8128.00	8103.00
	94.00	320.00	-860.00	-596.00	8128.00	8103.00
	32.00	275.00	18.00	-300.00	8128.00	8104.00
	187.00	285.00	657.00	296.00	8128.00	8103.00
	139.00	186.00	1213.00	870.00	8128.00	8103.00
	-100.00	16.00	1097.00	1240.00	8129.00	8103.00
	-134.00	-202.00	913.00	1262.00	8129.00	8104.00
	-80.00	-342.00	756.00	893.00	8129.00	8103.00
	28.00	-453.00	597.00	524.00	8127.00	8103.00
	36.00	-611.00	357.00	328.00	8127.00	8102.00
	-47.00	-659.00	181.00	175.00	8128.00	8102.00
	-129.00	-621.00	103.00	-9.00	8129.00	8103.00
	-22.00	-447.00	117.00	-175.00	8128.00	8103.00
	48.00	-245.00	21.00	-238.00	8127.00	8102.00
	122.00	-145.00	-5.00	-203.00	8128.00	8103.00
	91.00	-23.00	-23.00	-83.00	8128.00	8103.00
	197.00	64.00	-16.00	31.00	8127.00	8103.00
	290.00	109.00	-60.00	-42.00	8129.00	8103.00
	236.00	147.00	-121.00	-191.00	8127.00	8102.00
	150.00	183.00	-125.00	-302.00	8128.00	8103.00
	-46.00	143.00	-175.00	-371.00	8126.00	8103.00
	-62.00	86.00	-299.00	-349.00	8126.00	8102.00
	-165.00	-70.00	-368.00	-376.00	8126.00	8102.00
	-91.00	-145.00	-424.00	-286.00	8128.00	8104.00
	33.00	-133.00	-372.00	-186.00	8127.00	8103.00
	132.00	21.00	-497.00	-71.00	8129.00	8104.00
	114.00	282.00	-600.00	-129.00	8128.00	8103.00
	-30.00	379.00	-711.00	-232.00	8128.00	8103.00
	-11.00	333.00	-426.00	-225.00	8127.00	8102.00
	-8.00	120.00	-43.00	-70.00	8128.00	8103.00
	-32.00	-11.00	109.00	86.00	8128.00	8104.00
	-78.00	-225.00	384.00	258.00	8128.00	8103.00
	-156.00	-307.00	601.00	379.00	8129.00	8104.00
	-196.00	-225.00	798.00	534.00	8128.00	8103.00
	-210.00	-36.00	497.00	504.00	8130.00	8104.00
	-357.00	73.00	118.00	180.00	8129.00	8104.00
	-357.00	152.00	-222.00	-103.00	8128.00	8103.00
	-161.00	239.00	-439.00	-308.00	8128.00	8104.00
	34.00	316.00	-477.00	-334.00	8127.00	8104.00
	78.00	291.00	-566.00	-277.00	8127.00	8103.00
	-279.00	424.00	-575.00	-359.00	8128.00	8103.00
	-687.00	462.00	20.00	-425.00	8127.00	8103.00
	-687.00	371.00	37.00	-433.00	8127.00	8104.00
	-322.00	117.00	67.00	-272.00	8127.00	8103.00
	68.00	-67.00	-50.00	-105.00	8129.00	8104.00
	372.00	-179.00	335.00	112.00	8129.00	8104.00
	448.00	-232.00	746.00	368.00	8130.00	8104.00
	436.00	-221.00	610.00	668.00	8129.00	8104.00
	292.00	-215.00	3.00	899.00	8130.00	8103.00
	227.00	-310.00	100.00	771.00	8129.00	8103.00
	352.00	-381.00	-42.00	430.00	8129.00	8103.00
	417.00	-370.00	-75.00	122.00	8129.00	8104.00
	348.00	-277.00	451.00	-119.00	8128.00	8104.00
	267.00	-137.00	547.00	-155.00	8128.00	8103.00
	255.00	7.00	591.00	89.00	8128.00	8103.00
	163.00	59.00	377.00	187.00	8129.00	8103.00
	94.00	21.00	171.00	121.00	8128.00	8104.00
	18.00	7.00	29.00	22.00	8128.00	8104.00
	-79.00	15.00	-68.00	-102.00	8128.00	8103.00
	-147.00	32.00	-129.00	-210.00	8128.00	8103.00
	-191.00	44.00	-205.00	-226.00	8127.00	8103.00
	-223.00	38.00	-253.00	-374.00	8128.00	8104.00
	-199.00	98.00	-260.00	-483.00	8127.00	8104.00
	-192.00	136.00	-317.00	-409.00	8127.00	8103.00
	-115.00	157.00	-349.00	-279.00	8127.00	8102.00
	-82.00	85.00	-267.00	-46.00	8128.00	8103.00
	28.00	67.00	-339.00	224.00	8129.00	8104.00
	86.00	107.00	-446.00	165.00	8128.00	8103.00
	231.00	187.00	-361.00	-176.00	8128.00	8103.00
	331.00	327.00	-317.00	-349.00	8127.00	8103.00
	261.00	358.00	-222.00	-355.00	8127.00	8103.00
	277.00	263.00	-95.00	-99.00	8128.00	8103.00
	304.00	110.00	107.00	68.00	8127.00	8102.00
	145.00	-123.00	101.00	229.00	8128.00	8103.00
	-127.00	-353.00	15.00	206.00	8128.00	8103.00
	-205.00	-322.00	7.00	92.00	8127.00	8102.00
	-165.00	-330.00	-106.00	56.00	8128.00	8102.00
	-210.00	-394.00	-86.00	61.00	8127.00	8102.00
	-149.00	-504.00	103.00	93.00	8128.00	8103.00
	-169.00	-424.00	-250.00	79.00	8128.00	8103.00
	-227.00	-346.00	-155.00	45.00	8127.00	8102.00
	-285.00	-277.00	-202.00	25.00	8127.00	8103.00
	-288.00	-72.00	-104.00	-56.00	8127.00	8102.00
	-290.00	145.00	337.00	-89.00	8128.00	8103.00
	-132.00	265.00	718.00	-7.00	8128.00	8103.00
	-61.00	326.00	764.00	207.00	8128.00	8103.00
	-39.00	292.00	520.00	387.00	8128.00	8103.00
	-62.00	214.00	347.00	329.00	8128.00	8102.00
	-7.00	186.00	87.00	46.00	8127.00	8103.00
	183.00	126.00	-73.00	-237.00	8128.00	8104.00
	-43.00	184.00	-160.00	-361.00	8127.00	8102.00
	-402.00	40.00	-245.00	-274.00	8128.00	8103.00
	-339.00	-169.00	-291.00	-189.00	8128.00	8103.00
	-99.00	-107.00	-137.00	-85.00	8128.00	8103.00
	103.00	-47.00	152.00	86.00	8128.00	8104.00
	183.00	38.00	38.00	297.00	8129.00	8103.00
	191.00	115.00	19.00	311.00	8129.00	8104.00
	209.00	106.00	-61.00	170.00	8128.00	8103.00
	191.00	76.00	-174.00	-19.00	8128.00	8103.00
	208.00	35.00	-215.00	-55.00	8128.00	8103.00
	225.00	-90.00	-171.00	-44.00	8128.00	8103.00
	145.00	-20.00	-219.00	-144.00	8128.00	8104.00
	60.00	135.00	-90.00	-300.00	8127.00	8103.00
	-63.00	210.00	180.00	-201.00	8128.00	8104.00
	28.00	284.00	133.00	-174.00	8128.00	8103.00
	55.00	283.00	148.00	-239.00	8128.00	8103.00
	14.00	225.00	211.00	-222.00	8129.00	8104.00
	-52.00	40.00	54.00	-171.00	8129.00	8104.00
	65.00	-38.00	-195.00	9.00	8128.00	8104.00
	108.00	-70.00	-230.00	322.00	8129.00	8103.00
	144.00	-189.00	-67.00	504.00	8129.00	8103.00
	112.00	-212.00	176.00	264.00	8129.00	8103.00
	108.00	-235.00	179.00	30.00	8128.00	8104.00
	203.00	-185.00	114.00	-69.00	8128.00	8103.00
	190.00	-205.00	-103.00	-24.00	8129.00	8103.00
	147.00	-284.00	-70.00	-115.00	8128.00	8103.00
	65.00	-220.00	-62.00	-85.00	8128.00	8103.00
	-15.00	-65.00	-91.00	-32.00	8128.00	8103.00
	-66.00	13.00	-136.00	-7.00	8128.00	8103.00
	-11.00	-67.00	-338.00	73.00	8128.00	8103.00
	-9.00	-174.00	-32.00	188.00	8129.00	8104.00
	-49.00	-223.00	472.00	200.00	8128.00	8102.00
	-150.00	-165.00	541.00	177.00	8128.00	8102.00
	-230.00	-88.00	491.00	249.00	8128.00	8103.00
	-296.00	-109.00	338.00	317.00	8129.00	8103.00
	-306.00	-86.00	242.00	190.00	8128.00	8103.00
	-270.00	-26.00	188.00	47.00	8128.00	8103.00
	-183.00	-6.00	132.00	37.00	8128.00	8103.00
	-111.00	21.00	123.00	59.00	8128.00	8103.00
	-110.00	153.00	18.00	-49.00	8127.00	8103.00
	-29.00	255.00	-222.00	-221.00	8127.00	8102.00
	56.00	326.00	-417.00	-337.00	8127.00	8102.00
	168.00	455.00	-542.00	-458.00	8126.00	8102.00
	258.00	384.00	-574.00	-570.00	8128.00	8104.00
	-37.00	102.00	-272.00	-458.00	8126.00	8103.00
	25.00	66.00	240.00	-272.00	8128.00	8103.00
	128.00	119.00	388.00	9.00	8127.00	8103.00
	103.00	197.00	12.00	332.00	8130.00	8104.00
	54.00	170.00	-207.00	454.00	8128.00	8102.00
	89.00	105.00	-226.00	352.00	8128.00	8103.00
	-9.00	-95.00	-209.00	217.00	8127.00	8102.00
	3.00	-215.00	-38.00	205.00	8127.00	8103.00
	-15.00	-262.00	215.00	148.00	8127.00	8102.00
	-88.00	-310.00	384.00	46.00	8127.00	8103.00
	-178.00	-247.00	306.00	-8.00	8128.00	8103.00
	-214.00	-67.00	180.00	-31.00	8128.00	8103.00
	-118.00	112.00	-89.00	-194.00	8128.00	8103.00
	27.00	225.00	-461.00	-390.00	8127.00	8103.00
	-73.00	209.00	-781.00	-635.00	8128.00	8104.00
	-231.00	205.00	-1007.00	-762.00	8127.00	8103.00
	-57.00	233.00	-944.00	-798.00	8127.00	8103.00
	315.00	316.00	-139.00	-814.00	8127.00	8103.00
	416.00	297.00	1085.00	-607.00	8128.00	8103.00
	372.00	91.00	446.00	58.00	8128.00	8103.00
	88.00	-150.00	465.00	960.00	8130.00	8103.00
	-112.00	-394.00	705.00	1340.00	8130.00	8104.00
	-135.00	-502.00	172.00	1041.00	8128.00	8103.00
	-99.00	-479.00	158.00	677.00	8128.00	8103.00
	-243.00	-504.00	238.00	566.00	8128.00	8104.00
	-381.00	-537.00	186.00	397.00	8129.00	8103.00
	-123.00	-489.00	214.00	238.00	8128.00	8103.00
	101.00	-391.00	116.00	200.00	8129.00	8104.00
	130.00	-250.00	80.00	71.00	8128.00	8103.00
	145.00	-108.00	49.00	-67.00	8128.00	8103.00
	165.00	79.00	5.00	-156.00	8128.00	8103.00
	132.00	239.00	-16.00	-201.00	8128.00	8103.00
	135.00	376.00	-132.00	-211.00	8128.00	8103.00
	274.00	407.00	-265.00	-189.00	8128.00	8103.00
	163.00	386.00	-368.00	-158.00	8128.00	8103.00
	-36.00	298.00	-433.00	-156.00	8128.00	8103.00
	-171.00	273.00	-233.00	-118.00	8128.00	8103.00
	-334.00	240.00	-55.00	-76.00	8128.00	8103.00
	-162.00	163.00	-23.00	-120.00	8128.00	8104.00
	-30.00	153.00	268.00	-216.00	8128.00	8104.00
	102.00	74.00	105.00	-267.00	8127.00	8103.00
	126.00	24.00	-211.00	-217.00	8128.00	8103.00
	162.00	25.00	-338.00	-208.00	8128.00	8103.00
	30.00	9.00	-484.00	-249.00	8127.00	8103.00
	65.00	-15.00	-448.00	-160.00	8128.00	8103.00
	-65.00	-43.00	-370.00	-177.00	8128.00	8103.00
	-169.00	-114.00	-208.00	-201.00	8127.00	8103.00
	-74.00	-81.00	35.00	-58.00	8129.00	8104.00
	41.00	-17.00	70.00	-172.00	8128.00	8103.00
	230.00	16.00	610.00	-61.00	8129.00	8104.00
	218.00	91.00	554.00	108.00	8128.00	8103.00
	20.00	149.00	171.00	304.00	8129.00	8103.00
	-69.00	16.00	106.00	284.00	8128.00	8103.00
	-84.00	61.00	-23.00	103.00	8127.00	8103.00
	-70.00	51.00	-45.00	-141.00	8128.00	8103.00
	-37.00	49.00	-71.00	-127.00	8128.00	8103.00
	-132.00	40.00	81.00	-77.00	8128.00	8103.00
	-53.00	-115.00	345.00	152.00	8127.00	8102.00
	8.00	-207.00	503.00	434.00	8130.00	8104.00
	43.00	-205.00	425.00	578.00	8128.00	8103.00
	30.00	-174.00	202.00	534.00	8127.00	8102.00
	-102.00	-79.00	141.00	408.00	8129.00	8103.00
	-374.00	-43.00	196.00	186.00	8128.00	8103.00
	-323.00	-46.00	218.00	-46.00	8128.00	8104.00
	-172.00	-108.00	119.00	-105.00	8128.00	8103.00
	36.00	-102.00	25.00	-55.00	8129.00	8103.00
	135.00	-35.00	-52.00	-59.00	8128.00	8103.00
	-117.00	-67.00	-264.00	-151.00	8128.00	8103.00
	-320.00	-107.00	-516.00	-323.00	8126.00	8102.00
	85.00	-50.00	-646.00	-308.00	8127.00	8103.00
	428.00	-90.00	-639.00	-125.00	8127.00	8102.00
	431.00	-151.00	-494.00	-81.00	8128.00	8103.00
	314.00	-219.00	-401.00	-179.00	8128.00	8103.00
	245.00	-235.00	65.00	-241.00	8127.00	8102.00
	205.00	-101.00	64.00	-196.00	8128.00	8103.00
	32.00	-96.00	-171.00	78.00	8127.00	8103.00
	-234.00	-90.00	-143.00	263.00	8129.00	8103.00
	-196.00	73.00	284.00	352.00	8129.00	8103.00
	-123.00	240.00	347.00	270.00	8128.00	8103.00
	-73.00	300.00	360.00	201.00	8127.00	8102.00
	-140.00	346.00	505.00	-1.00	8128.00	8103.00
	-214.00	405.00	251.00	-153.00	8127.00	8102.00
	-88.00	322.00	315.00	-124.00	8128.00	8103.00
	-7.00	240.00	52.00	-120.00	8128.00	8103.00
	62.00	179.00	-157.00	-185.00	8127.00	8103.00
	-29.00	176.00	-378.00	-386.00	8127.00	8103.00
	4.00	210.00	-424.00	-564.00	8128.00	8103.00
	182.00	222.00	-65.00	-527.00	8128.00	8103.00
	304.00	254.00	261.00	-398.00	8127.00	8103.00
	279.00	178.00	131.00	-146.00	8128.00	8104.00
	159.00	45.00	170.00	79.00	8128.00	8104.00
	365.00	16.00	142.00	175.00	8128.00	8103.00
	285.00	60.00	-90.00	271.00	8128.00	8103.00
	-167.00	-152.00	61.00	367.00	8129.00	8104.00
	-568.00	-418.00	-14.00	481.00	8129.00	8103.00
	-432.00	-419.00	-205.00	345.00	8129.00	8103.00
	-193.00	-291.00	-86.00	365.00	8130.00	8104.00
	-85.00	-263.00	-163.00	288.00	8128.00	8103.00
	-4.00	-225.00	-58.00	306.00	8130.00	8104.00
	-158.00	-283.00	-111.00	230.00	8128.00	8103.00
	-205.00	-446.00	-124.00	119.00	8128.00	8104.00
	-94.00	-519.00	124.00	171.00	8128.00	8103.00
	48.00	-504.00	352.00	168.00	8129.00	8104.00
	-45.00	-309.00	319.00	77.00	8128.00	8103.00
	-135.00	30.00	169.00	-83.00	8128.00	8103.00
	78.00	213.00	-35.00	-396.00	8127.00	8103.00
	151.00	240.00	-208.00	-533.00	8129.00	8103.00
	156.00	199.00	-186.00	-541.00	8128.00	8103.00
	224.00	165.00	3.00	-404.00	8128.00	8104.00
	235.00	174.00	223.00	-366.00	8127.00	8103.00
	183.00	218.00	562.00	-308.00	8127.00	8103.00
	170.00	346.00	17.00	-160.00	8129.00	8103.00
	-65.00	464.00	-348.00	-76.00	8129.00	8104.00
	-282.00	364.00	-572.00	22.00	8128.00	8104.00
	-181.00	239.00	-271.00	176.00	8128.00	8103.00
	-43.00	174.00	-21.00	342.00	8129.00	8103.00
	69.00	174.00	-57.00	355.00	8128.00	8103.00
	170.00	70.00	-97.00	324.00	8129.00	8103.00
	-63.00	-132.00	-215.00	447.00	8129.00	8103.00
	-69.00	-269.00	-216.00	352.00	8129.00	8103.00
	69.00	-270.00	-84.00	123.00	8128.00	8103.00
	284.00	-188.00	161.00	-97.00	8129.00	8104.00
	363.00	-115.00	245.00	-85.00	8127.00	8102.00
	164.00	-43.00	-96.00	102.00	8128.00	8103.00
	76.00	19.00	-32.00	38.00	8128.00	8103.00
	-5.00	72.00	531.00	-107.00	8127.00	8102.00
	-83.00	47.00	350.00	-140.00	8127.00	8102.00
	-236.00	-119.00	155.00	-140.00	8128.00	8103.00
	-382.00	-161.00	48.00	-96.00	8128.00	8103.00
	-431.00	-154.00	19.00	-175.00	8128.00	8103.00
	-475.00	-209.00	122.00	-244.00	8127.00	8103.00
	-389.00	-166.00	160.00	-171.00	8128.00	8103.00
	-164.00	-150.00	264.00	-85.00	8128.00	8103.00
	56.00	-13.00	-38.00	-143.00	8127.00	8102.00
	142.00	263.00	-377.00	-35.00	8129.00	8103.00
	273.00	501.00	-414.00	22.00	8128.00	8103.00
	403.00	573.00	-268.00	45.00	8128.00	8103.00
	393.00	374.00	-62.00	-73.00	8129.00	8104.00
	255.00	108.00	106.00	-163.00	8128.00	8103.00
	274.00	-55.00	198.00	-132.00	8128.00	8103.00
	160.00	-213.00	16.00	22.00	8128.00	8103.00
	-130.00	-433.00	-95.00	-37.00	8129.00	8104.00
	-217.00	-494.00	-34.00	-144.00	8128.00	8103.00
	87.00	-252.00	-271.00	-50.00	8128.00	8104.00
	360.00	-92.00	-216.00	305.00	8129.00	8103.00
	52.00	-110.00	-227.00	645.00	8128.00	8103.00
	-235.00	-166.00	207.00	537.00	8127.00	8103.00
	-316.00	-44.00	437.00	280.00	8128.00	8103.00
	-283.00	40.00	228.00	187.00	8128.00	8103.00
	-239.00	-213.00	-3.00	174.00	8128.00	8103.00
	-404.00	-218.00	-48.00	218.00	8128.00	8103.00
	-373.00	-88.00	-24.00	15.00	8127.00	8103.00
	-263.00	198.00	-248.00	-197.00	8128.00	8103.00
	147.00	495.00	-534.00	-443.00	8127.00	8103.00
	549.00	587.00	-675.00	-469.00	8126.00	8103.00
	395.00	500.00	-946.00	-516.00	8128.00	8103.00
	156.00	302.00	-196.00	-682.00	8128.00	8103.00
	199.00	113.00	1213.00	-550.00	8127.00	8103.00
	310.00	-48.00	1050.00	138.00	8127.00	8102.00
	213.00	-45.00	641.00	816.00	8129.00	8103.00
	-47.00	-109.00	393.00	774.00	8129.00	8103.00
	-261.00	-133.00	346.00	244.00	8129.00	8103.00
	-228.00	-11.00	186.00	-103.00	8129.00	8104.00
	-113.00	-100.00	-86.00	-129.00	8129.00	8104.00
	-41.00	-353.00	-197.00	184.00	8129.00	8104.00
	-89.00	-465.00	-228.00	315.00	8129.00	8103.00
	-140.00	-341.00	-226.00	140.00	8128.00	8104.00
	-127.00	-186.00	-134.00	-113.00	8128.00	8103.00
	-100.00	-8.00	130.00	-142.00	8128.00	8103.00
	81.00	95.00	189.00	-165.00	8128.00	8104.00
	124.00	295.00	6.00	-381.00	8128.00	8103.00
	86.00	408.00	15.00	-340.00	8127.00	8103.00
	143.00	508.00	-137.00	-170.00	8128.00	8103.00
	61.00	240.00	-180.00	-1.00	8129.00	8104.00
	-141.00	-62.00	171.00	59.00	8127.00	8103.00
	-143.00	-201.00	8.00	79.00	8128.00	8103.00
	-107.00	-293.00	39.00	158.00	8128.00	8103.00
	-299.00	-230.00	-172.00	237.00	8128.00	8103.00
	-209.00	-221.00	-405.00	197.00	8128.00	8102.00
	-146.00	-301.00	-331.00	45.00	8127.00	8103.00
	63.00	-268.00	-123.00	-20.00	8128.00	8103.00
	297.00	-210.00	-360.00	60.00	8128.00	8104.00
	390.00	-84.00	-384.00	16.00	8127.00	8102.00
	415.00	8.00	298.00	-253.00	8127.00	8102.00
	207.00	35.00	636.00	-117.00	8128.00	8103.00
	23.00	135.00	638.00	175.00	8128.00	8103.00
	45.00	252.00	83.00	180.00	8127.00	8103.00
	-68.00	343.00	-70.00	-167.00	8127.00	8102.00
	-195.00	264.00	195.00	-322.00	8127.00	8103.00
	-216.00	60.00	-149.00	-193.00	8127.00	8102.00
	-98.00	-274.00	-269.00	186.00	8127.00	8102.00
	-9.00	-333.00	-87.00	358.00	8128.00	8102.00
	20.00	-81.00	-173.00	207.00	8128.00	8103.00
	-112.00	284.00	-150.00	18.00	8127.00	8103.00
	-68.00	488.00	-191.00	-186.00	8128.00	8103.00
	80.00	483.00	-413.00	-255.00	8128.00	8104.00
	-12.00	353.00	-458.00	-183.00	8127.00	8102.00
	-21.00	222.00	-459.00	-208.00	8128.00	8104.00
	10.00	139.00	162.00	-228.00	8127.00	8103.00
	57.00	130.00	222.00	-40.00	8128.00	8103.00
	73.00	-108.00	530.00	47.00	8128.00	8103.00
	-105.00	-185.00	952.00	131.00	8128.00	8103.00
	-166.00	-166.00	694.00	9.00	8128.00	8104.00
	44.00	-99.00	266.00	-112.00	8128.00	8103.00
	101.00	-74.00	-86.00	21.00	8127.00	8103.00
	151.00	-130.00	-137.00	-30.00	8129.00	8103.00
	231.00	-182.00	-131.00	-153.00	8128.00	8103.00
	204.00	-197.00	264.00	58.00	8128.00	8103.00
	198.00	-206.00	92.00	401.00	8130.00	8103.00
	100.00	-125.00	-173.00	371.00	8129.00	8103.00
	-67.00	-82.00	-261.00	208.00	8128.00	8103.00
	-111.00	-165.00	-407.00	105.00	8128.00	8104.00
	-97.00	-374.00	-379.00	-24.00	8129.00	8103.00
	25.00	-319.00	-293.00	-169.00	8128.00	8104.00
	-53.00	-151.00	-322.00	-125.00	8128.00	8103.00
	-216.00	-71.00	-211.00	-70.00	8129.00	8104.00
	-116.00	-119.00	-47.00	-22.00	8129.00	8104.00
	-53.00	-35.00	-54.00	4.00	8127.00	8103.00
	-163.00	126.00	-276.00	115.00	8128.00	8103.00
	-215.00	137.00	-387.00	102.00	8128.00	8103.00
	-234.00	53.00	382.00	-64.00	8128.00	8103.00
	-98.00	21.00	664.00	-86.00	8129.00	8104.00
	109.00	56.00	265.00	27.00	8127.00	8103.00
	241.00	189.00	165.00	28.00	8127.00	8103.00
	161.00	169.00	99.00	-95.00	8128.00	8103.00
	-52.00	369.00	133.00	-237.00	8128.00	8103.00
	-147.00	398.00	141.00	-210.00	8128.00	8103.00
	-84.00	200.00	275.00	-77.00	8128.00	8102.00
	99.00	48.00	-43.00	133.00	8128.00	8103.00
	220.00	-122.00	54.00	391.00	8129.00	8103.00
	171.00	-208.00	148.00	501.00	8129.00	8103.00
	68.00	-162.00	51.00	246.00	8127.00	8102.00
	8.00	-5.00	-250.00	32.00	8127.00	8102.00
	61.00	158.00	-294.00	-135.00	8128.00	8103.00
	80.00	257.00	-288.00	-230.00	8127.00	8102.00
	136.00	139.00	-280.00	-332.00	8127.00	8103.00
	64.00	153.00	-24.00	-418.00	8126.00	8102.00
	-69.00	204.00	193.00	-382.00	8126.00	8102.00
	18.00	215.00	-199.00	-216.00	8127.00	8103.00
	125.00	205.00	-391.00	-1.00	8128.00	8103.00
	-17.00	268.00	-491.00	-82.00	8127.00	8103.00
	-103.00	53.00	-47.00	-186.00	8128.00	8103.00
	-245.00	-58.00	294.00	-139.00	8128.00	8103.00
	-163.00	-256.00	595.00	187.00	8129.00	8104.00
	-89.00	-449.00	418.00	600.00	8128.00	8103.00
	-128.00	-423.00	191.00	533.00	8128.00	8104.00
	-222.00	-410.00	191.00	250.00	8128.00	8102.00
	-189.00	-390.00	178.00	174.00	8128.00	8104.00
	-61.00	-382.00	167.00	128.00	8128.00	8104.00
	-29.00	-343.00	207.00	74.00	8128.00	8104.00
	-39.00	-242.00	102.00	39.00	8128.00	8104.00
	8.00	-29.00	-57.00	-136.00	8128.00	8103.00
	37.00	230.00	-60.00	-233.00	8127.00	8103.00
	6.00	246.00	-182.00	-278.00	8127.00	8103.00
	128.00	224.00	-350.00	-333.00	8127.00	8103.00
	66.00	253.00	-241.00	-436.00	8127.00	8104.00
	297.00	325.00	-448.00	-416.00	8127.00	8103.00
	550.00	287.00	-535.00	-76.00	8129.00	8104.00
	200.00	96.00	-386.00	-232.00	8127.00	8103.00
	-34.00	-45.00	241.00	-267.00	8127.00	8103.00
	-93.00	-104.00	668.00	119.00	8129.00	8104.00
	-47.00	-89.00	114.00	781.00	8129.00	8103.00
	34.00	-131.00	-53.00	932.00	8129.00	8103.00
	68.00	-217.00	-79.00	510.00	8130.00	8103.00
	33.00	-414.00	-53.00	136.00	8128.00	8103.00
	7.00	-459.00	218.00	156.00	8128.00	8103.00
	-44.00	-472.00	311.00	192.00	8128.00	8103.00
	-254.00	-377.00	248.00	70.00	8128.00	8103.00
	-618.00	10.00	-72.00	-169.00	8128.00	8104.00
	-365.00	405.00	-193.00	-326.00	8127.00	8103.00
	-170.00	481.00	-136.00	-435.00	8126.00	8102.00
	14.00	450.00	41.00	-358.00	8127.00	8103.00
	102.00	326.00	246.00	-71.00	8128.00	8103.00
	170.00	313.00	311.00	179.00	8128.00	8103.00
	130.00	296.00	219.00	143.00	8128.00	8103.00
	-47.00	300.00	66.00	-12.00	8128.00	8103.00
	-30.00	288.00	-10.00	-132.00	8127.00	8102.00
	109.00	271.00	-82.00	-105.00	8128.00	8103.00
	295.00	57.00	-194.00	7.00	8127.00	8102.00
	349.00	-167.00	-227.00	29.00	8128.00	8103.00
	274.00	-230.00	-252.00	-24.00	8129.00	8103.00
	208.00	-280.00	-375.00	-95.00	8127.00	8102.00
	272.00	-129.00	-427.00	-225.00	8127.00	8103.00
	498.00	71.00	-148.00	-160.00	8127.00	8102.00
	145.00	158.00	-112.00	-39.00	8127.00	8102.00
	-251.00	89.00	-40.00	96.00	8127.00	8102.00
	-344.00	179.00	246.00	-39.00	8128.00	8103.00
	-468.00	229.00	353.00	-88.00	8128.00	8103.00
	-482.00	74.00	151.00	-105.00	8128.00	8103.00
	-585.00	-259.00	-96.00	-31.00	8128.00	8102.00
	-364.00	-506.00	-115.00	120.00	8128.00	8103.00
	-101.00	-505.00	51.00	228.00	8129.00	8104.00
	-76.00	-435.00	47.00	367.00	8129.00	8103.00
	-167.00	-422.00	71.00	510.00	8129.00	8104.00
	-357.00	-357.00	177.00	371.00	8129.00	8104.00
	-132.00	-215.00	245.00	148.00	8128.00	8103.00
	253.00	-153.00	154.00	58.00	8128.00	8102.00
	500.00	-191.00	-33.00	-52.00	8128.00	8103.00
	572.00	41.00	-178.00	-262.00	8127.00	8103.00
	244.00	221.00	-465.00	-461.00	8127.00	8103.00
	203.00	344.00	-511.00	-664.00	8128.00	8104.00
	427.00	284.00	-21.00	-724.00	8128.00	8104.00
	684.00	274.00	348.00	-308.00	8127.00	8102.00
	571.00	270.00	256.00	281.00	8129.00	8103.00
	178.00	223.00	-91.00	335.00	8129.00	8103.00
	-29.00	257.00	117.00	-51.00	8128.00	8103.00
	-49.00	261.00	-297.00	-310.00	8127.00	8103.00
	-151.00	319.00	-500.00	-341.00	8127.00	8103.00
	-296.00	268.00	-267.00	-54.00	8128.00	8103.00
	-360.00	122.00	2.00	326.00	8129.00	8103.00
	-384.00	-22.00	308.00	568.00	8128.00	8103.00
	-421.00	-60.00	506.00	691.00	8128.00	8103.00
	-441.00	-282.00	759.00	596.00	8128.00	8103.00
	-466.00	-485.00	726.00	318.00	8129.00	8103.00
	-389.00	-447.00	436.00	91.00	8128.00	8103.00
	-202.00	-301.00	159.00	-55.00	8127.00	8102.00
	-24.00	-175.00	-33.00	-144.00	8128.00	8102.00
	18.00	-47.00	-298.00	-197.00	8128.00	8103.00
	25.00	68.00	-505.00	-291.00	8127.00	8104.00
	345.00	132.00	-613.00	-380.00	8127.00	8104.00
	434.00	118.00	-578.00	-345.00	8127.00	8103.00
	133.00	65.00	-204.00	-237.00	8127.00	8103.00
	33.00	12.00	366.00	-100.00	8128.00	8103.00
	44.00	219.00	434.00	130.00	8129.00	8104.00
	47.00	395.00	312.00	375.00	8128.00	8102.00
	-259.00	398.00	158.00	353.00	8129.00	8103.00
	-792.00	39.00	-133.00	63.00	8128.00	8102.00
	-533.00	-243.00	-129.00	-58.00	8128.00	8103.00
	15.00	-446.00	-146.00	-19.00	8129.00	8103.00
	467.00	-403.00	20.00	114.00	8128.00	8103.00
	586.00	-182.00	199.00	206.00	8128.00	8103.00
	467.00	-36.00	125.00	87.00	8126.00	8102.00
	523.00	186.00	-72.00	-153.00	8128.00	8103.00
	504.00	227.00	-172.00	-329.00	8127.00	8103.00
	387.00	28.00	-112.00	-237.00	8127.00	8103.00
	249.00	-142.00	-202.00	-53.00	8128.00	8104.00
	-34.00	-186.00	-479.00	97.00	8128.00	8103.00
	-113.00	-34.00	-417.00	80.00	8128.00	8103.00
	-30.00	18.00	-331.00	83.00	8128.00	8104.00
	3.00	-310.00	-191.00	233.00	8128.00	8103.00
	-217.00	-451.00	400.00	255.00	8129.00	8103.00
	-469.00	-323.00	593.00	46.00	8127.00	8103.00
	-371.00	-92.00	192.00	-119.00	8127.00	8103.00
	-267.00	263.00	-58.00	-233.00	8128.00	8104.00
	-56.00	590.00	76.00	-340.00	8127.00	8103.00
	-122.00	346.00	41.00	-374.00	8128.00	8104.00
	-50.00	198.00	67.00	-274.00	8127.00	8103.00
	-95.00	83.00	258.00	-25.00	8128.00	8103.00
	-139.00	33.00	-98.00	190.00	8128.00	8103.00
	-63.00	119.00	-145.00	-47.00	8128.00	8103.00
	-62.00	300.00	-213.00	-392.00	8128.00	8104.00
	127.00	204.00	-276.00	-251.00	8128.00	8103.00
	260.00	64.00	-351.00	-166.00	8128.00	8103.00
	252.00	-15.00	-263.00	-2.00	8129.00	8103.00
	38.00	48.00	302.00	277.00	8129.00	8103.00
	-53.00	169.00	490.00	563.00	8129.00	8104.00
	-288.00	144.00	423.00	537.00	8128.00	8104.00
	-292.00	101.00	437.00	326.00	8129.00	8103.00
	-150.00	68.00	136.00	72.00	8127.00	8103.00
	-86.00	-54.00	-25.00	-6.00	8128.00	8103.00
	121.00	-101.00	-108.00	-41.00	8128.00	8103.00
	300.00	-52.00	-225.00	-85.00	8128.00	8103.00
	295.00	-183.00	-403.00	-123.00	8127.00	8102.00
	451.00	-256.00	-399.00	-21.00	8128.00	8103.00
	537.00	-173.00	14.00	-130.00	8127.00	8102.00
	374.00	-100.00	284.00	-126.00	8128.00	8102.00
	47.00	-114.00	17.00	-21.00	8129.00	8103.00
	-347.00	-189.00	87.00	61.00	8127.00	8102.00
	-367.00	-361.00	342.00	135.00	8128.00	8102.00
	-240.00	-502.00	126.00	222.00	8128.00	8102.00
	-189.00	-481.00	153.00	281.00	8128.00	8102.00
	-171.00	-357.00	245.00	255.00	8128.00	8103.00
	-146.00	-191.00	179.00	120.00	8128.00	8103.00
	-225.00	104.00	56.00	-166.00	8128.00	8103.00
	-235.00	318.00	-57.00	-313.00	8127.00	8103.00
	-68.00	434.00	-178.00	-367.00	8127.00	8104.00
	194.00	202.00	-437.00	-350.00	8127.00	8103.00
	173.00	-70.00	-280.00	-313.00	8128.00	8104.00
	48.00	-162.00	-214.00	-67.00	8128.00	8103.00
	-76.00	-162.00	-318.00	93.00	8128.00	8104.00
	5.00	-72.00	-340.00	27.00	8128.00	8104.00
	164.00	183.00	232.00	-19.00	8129.00	8103.00
	198.00	440.00	504.00	98.00	8128.00	8103.00
	96.00	605.00	64.00	216.00	8129.00	8104.00
	-58.00	618.00	-34.00	216.00	8128.00	8103.00
	-140.00	454.00	-112.00	172.00	8128.00	8103.00
	-151.00	235.00	-286.00	85.00	8128.00	8103.00
	-92.00	121.00	-399.00	-106.00	8128.00	8104.00
	-47.00	118.00	-481.00	-280.00	8128.00	8103.00
	170.00	185.00	-443.00	-424.00	8128.00	8104.00
	287.00	131.00	-91.00	-553.00	8127.00	8103.00
	270.00	-176.00	555.00	-450.00	8127.00	8103.00
	127.00	-284.00	571.00	-222.00	8128.00	8103.00
	108.00	-370.00	-29.00	133.00	8129.00	8104.00
	33.00	-356.00	197.00	375.00	8129.00	8102.00
	-16.00	-230.00	367.00	517.00	8128.00	8104.00
	-66.00	-121.00	336.00	534.00	8128.00	8103.00
	5.00	-146.00	68.00	488.00	8129.00	8103.00
	-24.00	-326.00	-102.00	328.00	8129.00	8103.00
	-31.00	-506.00	-63.00	275.00	8129.00	8104.00
	-157.00	-464.00	-127.00	22.00	8129.00	8104.00
	-238.00	-85.00	-126.00	-255.00	8128.00	8103.00
	-147.00	223.00	175.00	-372.00	8126.00	8102.00
	-30.00	248.00	394.00	-81.00	8129.00	8104.00
	-4.00	199.00	662.00	215.00	8128.00	8103.00
	-64.00	-10.00	473.00	294.00	8129.00	8104.00
	-306.00	-80.00	127.00	117.00	8128.00	8103.00
	-405.00	43.00	-2.00	-65.00	8128.00	8103.00
	-324.00	175.00	-73.00	-219.00	8128.00	8103.00
	-249.00	67.00	-154.00	-275.00	8128.00	8103.00
	-84.00	66.00	-213.00	-310.00	8127.00	8103.00
	109.00	62.00	-275.00	-236.00	8128.00	8103.00
	252.00	147.00	-439.00	-128.00	8128.00	8103.00
	345.00	150.00	-402.00	-85.00	8127.00	8102.00
	397.00	46.00	-407.00	-47.00	8128.00	8102.00
	321.00	-113.00	-453.00	35.00	8128.00	8102.00
	265.00	-309.00	-274.00	102.00	8128.00	8103.00
	147.00	-336.00	251.00	213.00	8128.00	8103.00
	42.00	-129.00	155.00	235.00	8128.00	8103.00
	83.00	-101.00	140.00	81.00	8127.00	8103.00
	235.00	-133.00	85.00	82.00	8128.00	8103.00
	70.00	-21.00	-162.00	111.00	8128.00	8103.00
	-81.00	51.00	-375.00	163.00	8128.00	8103.00
	-159.00	34.00	-397.00	75.00	8128.00	8103.00
	-417.00	102.00	-338.00	-113.00	8128.00	8103.00
	-361.00	158.00	-160.00	-279.00	8127.00	8102.00
	-215.00	183.00	459.00	-288.00	8127.00	8103.00
	-21.00	170.00	672.00	-113.00	8128.00	8103.00
	76.00	238.00	689.00	11.00	8128.00	8103.00
	108.00	364.00	391.00	27.00	8127.00	8103.00
	69.00	399.00	226.00	20.00	8128.00	8103.00
	72.00	266.00	151.00	-1.00	8129.00	8103.00
	172.00	115.00	94.00	-14.00	8129.00	8103.00
	192.00	-11.00	87.00	19.00	8128.00	8104.00
	126.00	-58.00	-45.00	31.00	8128.00	8103.00
	89.00	8.00	-236.00	-97.00	8129.00	8104.00
	27.00	23.00	-428.00	-325.00	8127.00	8103.00
	0.00	33.00	-618.00	-499.00	8127.00	8103.00
	109.00	58.00	-649.00	-572.00	8128.00	8103.00
	147.00	88.00	-203.00	-294.00	8127.00	8103.00
	131.00	42.00	89.00	-104.00	8128.00	8103.00
	116.00	15.00	277.00	148.00	8128.00	8103.00
	49.00	-125.00	251.00	315.00	8129.00	8103.00
	-328.00	-328.00	229.00	364.00	8129.00	8103.00
	-294.00	-536.00	272.00	331.00	8130.00	8104.00
	-156.00	-525.00	264.00	312.00	8129.00	8103.00
	-89.00	-468.00	195.00	432.00	8130.00	8104.00
	37.00	-412.00	24.00	466.00	8129.00	8103.00
	-79.00	-339.00	-63.00	389.00	8129.00	8103.00
	-267.00	-218.00	-13.00	272.00	8129.00	8104.00
	-318.00	-131.00	72.00	156.00	8128.00	8103.00
	-321.00	-19.00	89.00	38.00	8128.00	8103.00
	-157.00	186.00	30.00	-27.00	8129.00	8104.00
	-18.00	345.00	-54.00	-67.00	8129.00	8104.00
	-260.00	388.00	-42.00	-118.00	8128.00	8103.00
	-411.00	355.00	-51.00	-148.00	8128.00	8103.00
	-194.00	216.00	-97.00	-177.00	8129.00	8104.00
	26.00	48.00	-106.00	-272.00	8129.00	8104.00
	160.00	-100.00	-107.00	-446.00	8127.00	8103.00
	195.00	-156.00	-182.00	-414.00	8127.00	8104.00
	284.00	-131.00	19.00	-229.00	8128.00	8103.00
	341.00	-97.00	160.00	46.00	8129.00	8104.00
	339.00	-25.00	3.00	257.00	8129.00	8103.00
	324.00	101.00	52.00	255.00	8128.00	8102.00
	158.00	245.00	-134.00	131.00	8129.00	8104.00
	147.00	322.00	-176.00	-158.00	8128.00	8104.00
	188.00	262.00	-263.00	-376.00	8127.00	8103.00
	191.00	190.00	-559.00	-423.00	8126.00	8102.00
	371.00	259.00	-874.00	-351.00	8127.00	8103.00
	685.00	371.00	-887.00	-283.00	8127.00	8103.00
	649.00	468.00	-739.00	-175.00	8128.00	8102.00
