MegaWin ASCII file

[DEFINITIONS]
ChannelCount=8
DataType=1
SamplingFreq=1000.000000
FirstSampleTime=0.001000
PhaseName=Raw Static 15/12/2017 10:50:07


[COMMENT]



[SOURCE NAMES]
Quadriceps femoris muscle - rectus femoris
Quadriceps femoris muscle - rectus femoris
Quadriceps femoris muscle - rectus femoris
Quadriceps femoris muscle - rectus femoris
Quadriceps femoris muscle - vastus lateralis
Quadriceps femoris muscle - vastus lateralis


[SIDE INFO]
R
R
R
R
R
R


[UNITS]
uV
uV
uV
uV
uV
uV






[DATA]
	24.00	13.00	-179.00	-9.00	8140.00	8115.00
	35.00	15.00	-164.00	4.00	8137.00	8113.00
	28.00	3.00	-127.00	-2.00	8138.00	8113.00
	-2.00	-1.00	-111.00	-32.00	8136.00	8111.00
	-14.00	4.00	-22.00	-71.00	8136.00	8110.00
	-10.00	9.00	-102.00	-59.00	8135.00	8110.00
	-8.00	15.00	-229.00	-53.00	8135.00	8108.00
	-14.00	9.00	-101.00	-73.00	8134.00	8109.00
	-20.00	-3.00	221.00	-43.00	8133.00	8108.00
	-28.00	9.00	194.00	-20.00	8134.00	8109.00
	-22.00	11.00	72.00	43.00	8133.00	8108.00
	-38.00	-6.00	-5.00	87.00	8132.00	8106.00
	-46.00	-20.00	-47.00	81.00	8132.00	8108.00
	-39.00	-21.00	-124.00	31.00	8132.00	8106.00
	-28.00	-16.00	-191.00	-11.00	8133.00	8107.00
	-26.00	-10.00	-150.00	-28.00	8132.00	8107.00
	-24.00	-13.00	-33.00	-37.00	8131.00	8106.00
	-28.00	-18.00	-40.00	25.00	8130.00	8106.00
	-25.00	-20.00	-91.00	81.00	8131.00	8106.00
	-12.00	-19.00	-114.00	105.00	8131.00	8106.00
	-4.00	-17.00	-84.00	18.00	8130.00	8105.00
	2.00	-9.00	-105.00	-39.00	8130.00	8105.00
	9.00	0.00	-55.00	-52.00	8130.00	8105.00
	18.00	10.00	48.00	-39.00	8130.00	8105.00
	18.00	11.00	179.00	7.00	8130.00	8106.00
	24.00	14.00	229.00	34.00	8129.00	8105.00
	33.00	35.00	36.00	-14.00	8130.00	8105.00
	36.00	35.00	-14.00	-48.00	8129.00	8104.00
	34.00	27.00	67.00	-46.00	8129.00	8104.00
	36.00	27.00	82.00	-31.00	8130.00	8105.00
	22.00	16.00	83.00	-17.00	8129.00	8104.00
	12.00	-13.00	148.00	28.00	8129.00	8104.00
	-3.00	-34.00	210.00	23.00	8129.00	8104.00
	-15.00	-31.00	200.00	-13.00	8128.00	8103.00
	-14.00	-31.00	38.00	1.00	8128.00	8104.00
	-8.00	-27.00	-11.00	2.00	8128.00	8103.00
	-6.00	-24.00	13.00	24.00	8128.00	8103.00
	-12.00	-26.00	76.00	51.00	8128.00	8103.00
	-12.00	-19.00	103.00	41.00	8127.00	8102.00
	-7.00	-1.00	114.00	-4.00	8129.00	8104.00
	4.00	16.00	27.00	-34.00	8128.00	8103.00
	25.00	27.00	-87.00	-69.00	8129.00	8104.00
	63.00	46.00	-150.00	-115.00	8128.00	8103.00
	130.00	72.00	-252.00	-131.00	8128.00	8103.00
	133.00	68.00	-272.00	-127.00	8128.00	8103.00
	91.00	46.00	-47.00	-93.00	8128.00	8103.00
	35.00	21.00	288.00	28.00	8128.00	8103.00
	-26.00	16.00	124.00	124.00	8128.00	8103.00
	-87.00	-15.00	89.00	249.00	8128.00	8103.00
	-140.00	-58.00	-63.00	207.00	8127.00	8102.00
	-162.00	-59.00	-154.00	46.00	8127.00	8102.00
	-146.00	-47.00	-152.00	-44.00	8127.00	8102.00
	-92.00	-38.00	-99.00	2.00	8127.00	8103.00
	-63.00	-33.00	-28.00	-38.00	8127.00	8103.00
	-52.00	-30.00	-17.00	-75.00	8127.00	8102.00
	-27.00	-18.00	-86.00	-66.00	8127.00	8101.00
	-3.00	-10.00	-182.00	-69.00	8128.00	8103.00
	26.00	-3.00	-264.00	-60.00	8128.00	8103.00
	44.00	3.00	-278.00	-64.00	8128.00	8102.00
	48.00	6.00	-265.00	-64.00	8127.00	8103.00
	41.00	6.00	-124.00	-89.00	8128.00	8103.00
	24.00	-1.00	229.00	-85.00	8128.00	8103.00
	12.00	-6.00	381.00	-19.00	8128.00	8103.00
	2.00	-8.00	508.00	74.00	8128.00	8103.00
	-12.00	-13.00	457.00	125.00	8128.00	8103.00
	-12.00	-8.00	431.00	162.00	8128.00	8103.00
	-10.00	4.00	218.00	116.00	8128.00	8103.00
	-7.00	5.00	-10.00	63.00	8128.00	8103.00
	6.00	14.00	-130.00	-17.00	8128.00	8103.00
	15.00	23.00	-320.00	-75.00	8128.00	8103.00
	26.00	27.00	-385.00	-60.00	8129.00	8103.00
	26.00	16.00	-170.00	-15.00	8128.00	8102.00
	14.00	-8.00	131.00	43.00	8128.00	8103.00
	11.00	-16.00	206.00	62.00	8128.00	8103.00
	7.00	-19.00	127.00	78.00	8129.00	8104.00
	2.00	-30.00	56.00	95.00	8128.00	8103.00
	-3.00	-29.00	29.00	16.00	8128.00	8104.00
	6.00	-9.00	-97.00	-69.00	8129.00	8103.00
	16.00	-2.00	-236.00	-80.00	8128.00	8103.00
	28.00	9.00	-278.00	-72.00	8129.00	8104.00
	40.00	6.00	-194.00	-44.00	8129.00	8104.00
	36.00	0.00	-77.00	-24.00	8128.00	8103.00
	27.00	6.00	139.00	-6.00	8128.00	8103.00
	13.00	1.00	210.00	-5.00	8128.00	8103.00
	-6.00	11.00	135.00	-42.00	8128.00	8104.00
	-25.00	9.00	85.00	-5.00	8129.00	8104.00
	-32.00	9.00	46.00	46.00	8128.00	8103.00
	-42.00	-8.00	-96.00	61.00	8128.00	8103.00
	-38.00	-11.00	-107.00	28.00	8128.00	8103.00
	-22.00	-10.00	-126.00	7.00	8127.00	8103.00
	-6.00	-1.00	-111.00	-31.00	8129.00	8104.00
	23.00	10.00	-123.00	-59.00	8129.00	8104.00
	39.00	12.00	-112.00	-63.00	8128.00	8102.00
	34.00	10.00	-156.00	-32.00	8128.00	8103.00
	21.00	10.00	-149.00	-28.00	8129.00	8104.00
	8.00	4.00	-144.00	-23.00	8128.00	8104.00
	-13.00	-5.00	-91.00	-4.00	8129.00	8104.00
	-37.00	-32.00	-79.00	27.00	8128.00	8103.00
	-47.00	-32.00	-6.00	63.00	8128.00	8104.00
	-46.00	-29.00	91.00	82.00	8128.00	8104.00
	-48.00	-38.00	295.00	83.00	8129.00	8104.00
	-42.00	-29.00	359.00	64.00	8128.00	8104.00
	-28.00	-7.00	257.00	24.00	8128.00	8104.00
	-24.00	-1.00	204.00	11.00	8128.00	8104.00
	-23.00	2.00	105.00	-21.00	8128.00	8103.00
	-15.00	18.00	4.00	-55.00	8128.00	8103.00
	3.00	34.00	-87.00	-128.00	8128.00	8103.00
	30.00	43.00	-121.00	-184.00	8128.00	8104.00
	47.00	47.00	-72.00	-233.00	8128.00	8104.00
	45.00	38.00	82.00	-189.00	8128.00	8103.00
	37.00	24.00	337.00	-103.00	8128.00	8103.00
	26.00	-5.00	397.00	49.00	8128.00	8103.00
	9.00	-27.00	415.00	244.00	8128.00	8103.00
	10.00	-16.00	215.00	250.00	8128.00	8103.00
	2.00	-14.00	-48.00	151.00	8128.00	8103.00
	-9.00	-8.00	-265.00	32.00	8128.00	8103.00
	-19.00	-12.00	-270.00	2.00	8128.00	8103.00
	-18.00	-24.00	-248.00	20.00	8127.00	8103.00
	-19.00	-32.00	-194.00	51.00	8127.00	8103.00
	-24.00	-36.00	-179.00	56.00	8128.00	8104.00
	-27.00	-29.00	-232.00	26.00	8127.00	8103.00
	-18.00	-8.00	-237.00	-8.00	8129.00	8103.00
	-10.00	5.00	-215.00	-18.00	8128.00	8103.00
	-9.00	3.00	-154.00	11.00	8128.00	8103.00
	-14.00	-1.00	-39.00	29.00	8126.00	8102.00
	-10.00	6.00	160.00	20.00	8128.00	8103.00
	-6.00	2.00	249.00	22.00	8127.00	8102.00
	-4.00	6.00	59.00	-11.00	8129.00	8103.00
	4.00	14.00	-22.00	-48.00	8128.00	8103.00
	28.00	18.00	-133.00	-52.00	8129.00	8104.00
	72.00	19.00	-180.00	-47.00	8128.00	8103.00
	90.00	29.00	-249.00	-89.00	8129.00	8103.00
	79.00	25.00	-144.00	-122.00	8127.00	8103.00
	49.00	10.00	77.00	-109.00	8128.00	8103.00
	3.00	7.00	198.00	-53.00	8128.00	8103.00
	-28.00	-5.00	196.00	50.00	8128.00	8103.00
	-50.00	-22.00	145.00	93.00	8128.00	8103.00
	-59.00	-20.00	119.00	71.00	8128.00	8103.00
	-56.00	-22.00	192.00	41.00	8127.00	8102.00
	-35.00	-30.00	234.00	9.00	8128.00	8103.00
	-6.00	-19.00	172.00	-92.00	8128.00	8103.00
	11.00	-13.00	101.00	-102.00	8128.00	8103.00
	9.00	-8.00	-12.00	-60.00	8128.00	8103.00
	12.00	4.00	-221.00	-16.00	8127.00	8103.00
	24.00	21.00	-235.00	9.00	8127.00	8103.00
	16.00	23.00	-261.00	50.00	8127.00	8103.00
	4.00	13.00	-271.00	24.00	8127.00	8103.00
	3.00	19.00	-217.00	-18.00	8127.00	8102.00
	5.00	23.00	21.00	-43.00	8128.00	8103.00
	9.00	16.00	248.00	-42.00	8128.00	8102.00
	-8.00	3.00	243.00	14.00	8127.00	8103.00
	-31.00	0.00	193.00	50.00	8128.00	8103.00
	-51.00	-24.00	269.00	107.00	8127.00	8103.00
	-46.00	-19.00	152.00	113.00	8127.00	8103.00
	-37.00	-17.00	-42.00	112.00	8127.00	8103.00
	-17.00	-12.00	-315.00	55.00	8127.00	8103.00
	3.00	-8.00	-367.00	-24.00	8128.00	8103.00
	6.00	-19.00	-152.00	-37.00	8128.00	8103.00
	6.00	-18.00	27.00	-48.00	8128.00	8103.00
	5.00	-5.00	-81.00	-74.00	8128.00	8103.00
	0.00	-7.00	44.00	-33.00	8128.00	8103.00
	-9.00	-13.00	192.00	21.00	8127.00	8103.00
	-16.00	-12.00	26.00	29.00	8126.00	8102.00
	-15.00	-3.00	10.00	17.00	8128.00	8103.00
	1.00	-2.00	33.00	53.00	8127.00	8103.00
	0.00	5.00	60.00	56.00	8127.00	8103.00
	0.00	1.00	56.00	21.00	8127.00	8103.00
	6.00	8.00	58.00	-21.00	8128.00	8103.00
	5.00	6.00	59.00	-28.00	8128.00	8103.00
	8.00	2.00	128.00	-14.00	8128.00	8103.00
	5.00	1.00	197.00	-15.00	8128.00	8103.00
	5.00	4.00	139.00	-36.00	8127.00	8102.00
	10.00	6.00	13.00	-47.00	8128.00	8103.00
	34.00	0.00	-42.00	-6.00	8127.00	8103.00
	54.00	6.00	-79.00	-36.00	8128.00	8103.00
	54.00	12.00	-170.00	-98.00	8128.00	8103.00
	52.00	16.00	-206.00	-167.00	8128.00	8103.00
	29.00	8.00	-46.00	-139.00	8128.00	8103.00
	5.00	10.00	31.00	-77.00	8127.00	8103.00
	-7.00	4.00	46.00	-1.00	8128.00	8103.00
	-29.00	-25.00	-3.00	79.00	8127.00	8103.00
	-31.00	-23.00	-28.00	97.00	8127.00	8103.00
	-32.00	-23.00	65.00	74.00	8127.00	8103.00
	-23.00	-14.00	-26.00	22.00	8127.00	8103.00
	-14.00	-8.00	86.00	31.00	8128.00	8104.00
	-11.00	-8.00	125.00	57.00	8127.00	8103.00
	7.00	8.00	-58.00	15.00	8127.00	8103.00
	14.00	15.00	-229.00	-46.00	8128.00	8104.00
	27.00	22.00	-249.00	-121.00	8128.00	8103.00
	45.00	30.00	-263.00	-77.00	8129.00	8103.00
	29.00	32.00	-373.00	-2.00	8127.00	8103.00
	-5.00	19.00	-228.00	62.00	8128.00	8104.00
	-39.00	-18.00	221.00	117.00	8128.00	8103.00
	-65.00	-33.00	358.00	166.00	8129.00	8104.00
	-73.00	-48.00	264.00	157.00	8128.00	8104.00
	-75.00	-56.00	189.00	105.00	8128.00	8104.00
	-64.00	-47.00	19.00	37.00	8128.00	8104.00
	-38.00	-29.00	-67.00	-9.00	8128.00	8103.00
	-14.00	-17.00	-116.00	-21.00	8128.00	8103.00
	6.00	-6.00	-115.00	-32.00	8128.00	8103.00
	8.00	-1.00	-46.00	-37.00	8128.00	8104.00
	6.00	-1.00	-46.00	-47.00	8128.00	8103.00
	11.00	4.00	-36.00	-69.00	8128.00	8103.00
	15.00	7.00	-23.00	-66.00	8128.00	8104.00
	27.00	19.00	2.00	-87.00	8129.00	8104.00
	37.00	27.00	139.00	-91.00	8128.00	8103.00
	46.00	35.00	185.00	-128.00	8128.00	8104.00
	65.00	38.00	37.00	-95.00	8129.00	8104.00
	65.00	22.00	67.00	-5.00	8129.00	8103.00
	51.00	24.00	99.00	28.00	8128.00	8104.00
	25.00	-1.00	-21.00	73.00	8128.00	8103.00
	13.00	-6.00	107.00	122.00	8128.00	8103.00
	-9.00	-18.00	294.00	159.00	8129.00	8104.00
	-17.00	-10.00	225.00	103.00	8128.00	8103.00
	-19.00	-23.00	106.00	63.00	8128.00	8104.00
	-24.00	-19.00	-28.00	-28.00	8129.00	8104.00
	-17.00	-18.00	-230.00	-11.00	8129.00	8103.00
	-15.00	-31.00	-259.00	29.00	8127.00	8103.00
	-15.00	-4.00	-276.00	-31.00	8128.00	8103.00
	-14.00	-5.00	-243.00	-34.00	8129.00	8103.00
	-4.00	-5.00	-143.00	-57.00	8128.00	8103.00
	-8.00	3.00	-58.00	-78.00	8129.00	8104.00
	-29.00	1.00	121.00	-65.00	8128.00	8103.00
	-39.00	8.00	98.00	-11.00	8128.00	8103.00
	-44.00	8.00	102.00	66.00	8128.00	8103.00
	-34.00	-2.00	-45.00	71.00	8128.00	8104.00
	-30.00	-11.00	-66.00	41.00	8128.00	8103.00
	-28.00	-2.00	-58.00	-13.00	8130.00	8104.00
	-32.00	2.00	-91.00	-42.00	8129.00	8103.00
	-17.00	15.00	-157.00	-105.00	8129.00	8103.00
	19.00	26.00	-206.00	-153.00	8128.00	8103.00
	49.00	28.00	-163.00	-140.00	8128.00	8103.00
	58.00	27.00	-168.00	-111.00	8128.00	8103.00
	48.00	28.00	-22.00	-74.00	8129.00	8104.00
	26.00	16.00	249.00	-3.00	8129.00	8103.00
	5.00	-20.00	313.00	90.00	8128.00	8103.00
	-8.00	-41.00	335.00	105.00	8128.00	8104.00
	-19.00	-42.00	216.00	54.00	8127.00	8102.00
	-23.00	-33.00	78.00	36.00	8127.00	8103.00
	-16.00	-12.00	-14.00	34.00	8127.00	8103.00
	-12.00	5.00	31.00	20.00	8128.00	8103.00
	1.00	9.00	28.00	74.00	8128.00	8103.00
	0.00	4.00	4.00	89.00	8128.00	8104.00
	-2.00	-5.00	58.00	72.00	8128.00	8103.00
	-3.00	-18.00	130.00	61.00	8128.00	8103.00
	-4.00	-13.00	176.00	48.00	8127.00	8102.00
	-3.00	-3.00	26.00	2.00	8128.00	8103.00
	1.00	-8.00	4.00	2.00	8128.00	8103.00
	6.00	-14.00	22.00	15.00	8128.00	8104.00
	7.00	-14.00	18.00	24.00	8128.00	8103.00
	7.00	-17.00	18.00	3.00	8128.00	8103.00
	9.00	-10.00	89.00	-37.00	8128.00	8103.00
	17.00	2.00	161.00	-50.00	8128.00	8104.00
	21.00	12.00	111.00	-33.00	8128.00	8103.00
	15.00	15.00	59.00	-17.00	8128.00	8103.00
	13.00	22.00	-32.00	-50.00	8128.00	8103.00
	26.00	32.00	-156.00	-76.00	8128.00	8103.00
	38.00	32.00	-298.00	-44.00	8128.00	8103.00
	41.00	21.00	-303.00	-1.00	8129.00	8103.00
	37.00	5.00	-290.00	21.00	8128.00	8103.00
	9.00	-5.00	-262.00	27.00	8127.00	8103.00
	-19.00	-2.00	-248.00	54.00	8128.00	8103.00
	-41.00	-8.00	-245.00	92.00	8128.00	8103.00
	-64.00	-17.00	-224.00	49.00	8128.00	8104.00
	-79.00	-22.00	-31.00	-22.00	8128.00	8103.00
	-80.00	-24.00	145.00	-57.00	8129.00	8104.00
	-51.00	-11.00	174.00	-45.00	8129.00	8104.00
	-14.00	4.00	155.00	-45.00	8128.00	8103.00
	20.00	14.00	133.00	-38.00	8128.00	8103.00
	52.00	24.00	50.00	-33.00	8128.00	8103.00
	60.00	25.00	9.00	-70.00	8128.00	8103.00
	52.00	17.00	-44.00	-81.00	8128.00	8103.00
	36.00	4.00	-178.00	-72.00	8128.00	8103.00
	11.00	-5.00	-111.00	-35.00	8128.00	8103.00
	-15.00	-32.00	233.00	49.00	8127.00	8103.00
	-47.00	-53.00	347.00	99.00	8127.00	8103.00
	-52.00	-44.00	300.00	43.00	8128.00	8103.00
	-39.00	-22.00	93.00	-8.00	8128.00	8103.00
	-11.00	-11.00	-79.00	-51.00	8128.00	8103.00
	5.00	8.00	-150.00	-108.00	8128.00	8103.00
	19.00	21.00	-205.00	-94.00	8128.00	8103.00
	19.00	17.00	-176.00	-37.00	8128.00	8103.00
	25.00	19.00	-276.00	-17.00	8129.00	8103.00
	41.00	16.00	-230.00	-2.00	8128.00	8103.00
	68.00	19.00	-80.00	-67.00	8128.00	8103.00
	63.00	18.00	-190.00	-115.00	8127.00	8103.00
	39.00	13.00	-23.00	-139.00	8128.00	8103.00
	9.00	-5.00	379.00	68.00	8129.00	8104.00
	-36.00	-2.00	500.00	228.00	8128.00	8103.00
	-81.00	-29.00	359.00	372.00	8128.00	8102.00
	-115.00	-67.00	152.00	405.00	8129.00	8103.00
	-123.00	-79.00	70.00	240.00	8128.00	8102.00
	-98.00	-51.00	16.00	32.00	8128.00	8103.00
	-51.00	-23.00	-51.00	-27.00	8129.00	8103.00
	-14.00	-11.00	-126.00	-39.00	8128.00	8103.00
	13.00	-7.00	-186.00	-55.00	8128.00	8103.00
	36.00	4.00	-224.00	-67.00	8129.00	8103.00
	55.00	15.00	-140.00	-84.00	8128.00	8103.00
	73.00	20.00	46.00	-98.00	8128.00	8103.00
	85.00	32.00	182.00	-95.00	8129.00	8103.00
	87.00	29.00	232.00	-84.00	8128.00	8103.00
	72.00	22.00	222.00	-89.00	8128.00	8103.00
	50.00	12.00	197.00	-20.00	8128.00	8103.00
	8.00	25.00	112.00	-12.00	8128.00	8103.00
	-38.00	31.00	-31.00	29.00	8127.00	8102.00
	-65.00	10.00	-17.00	62.00	8127.00	8103.00
	-87.00	-20.00	-48.00	58.00	8128.00	8103.00
	-80.00	-23.00	-148.00	24.00	8128.00	8104.00
	-58.00	-10.00	-87.00	-11.00	8127.00	8102.00
	-42.00	-11.00	-77.00	-11.00	8128.00	8102.00
	-26.00	-5.00	-17.00	-33.00	8128.00	8103.00
	-14.00	-20.00	-71.00	-29.00	8128.00	8103.00
	-14.00	-22.00	-62.00	-21.00	8128.00	8103.00
	2.00	-6.00	-47.00	-2.00	8128.00	8102.00
	19.00	3.00	-145.00	-30.00	8128.00	8103.00
	40.00	8.00	-181.00	-27.00	8128.00	8103.00
	45.00	13.00	-83.00	-53.00	8128.00	8103.00
	43.00	18.00	6.00	-64.00	8128.00	8103.00
	34.00	14.00	-111.00	-57.00	8129.00	8104.00
	27.00	0.00	-42.00	-32.00	8129.00	8104.00
	17.00	-11.00	19.00	11.00	8128.00	8103.00
	5.00	-5.00	179.00	-57.00	8127.00	8102.00
	14.00	3.00	6.00	-114.00	8127.00	8102.00
	16.00	18.00	66.00	-76.00	8128.00	8103.00
	23.00	16.00	104.00	13.00	8127.00	8103.00
	9.00	15.00	63.00	58.00	8128.00	8103.00
	-6.00	7.00	138.00	93.00	8127.00	8103.00
	-21.00	3.00	126.00	143.00	8128.00	8103.00
	-36.00	-2.00	54.00	97.00	8128.00	8103.00
	-29.00	-5.00	22.00	58.00	8128.00	8103.00
	-22.00	-5.00	32.00	26.00	8127.00	8103.00
	-9.00	1.00	-23.00	-13.00	8129.00	8104.00
	-3.00	-1.00	-76.00	-28.00	8129.00	8103.00
	9.00	-1.00	-196.00	-13.00	8127.00	8102.00
	17.00	-1.00	-230.00	1.00	8127.00	8103.00
	18.00	-3.00	-238.00	-8.00	8128.00	8103.00
	17.00	4.00	-118.00	-13.00	8128.00	8103.00
	15.00	-8.00	82.00	-1.00	8129.00	8104.00
	15.00	-3.00	-30.00	-19.00	8128.00	8103.00
	19.00	-5.00	-34.00	-24.00	8128.00	8103.00
	7.00	-13.00	45.00	-18.00	8128.00	8103.00
	-7.00	-19.00	153.00	0.00	8128.00	8102.00
	-14.00	-15.00	125.00	31.00	8127.00	8103.00
	-17.00	-24.00	110.00	51.00	8127.00	8103.00
	-24.00	-27.00	75.00	10.00	8127.00	8103.00
	-15.00	-20.00	22.00	-23.00	8128.00	8103.00
	-11.00	-23.00	7.00	-6.00	8129.00	8104.00
	-17.00	-14.00	47.00	-9.00	8128.00	8103.00
	-13.00	1.00	158.00	-30.00	8128.00	8102.00
	-8.00	12.00	228.00	-30.00	8128.00	8103.00
	-3.00	8.00	245.00	-37.00	8129.00	8103.00
	16.00	7.00	103.00	-7.00	8128.00	8103.00
	37.00	15.00	-21.00	-6.00	8128.00	8103.00
	47.00	24.00	-84.00	-39.00	8128.00	8103.00
	45.00	26.00	-134.00	-72.00	8128.00	8103.00
	32.00	32.00	-157.00	-91.00	8129.00	8104.00
	7.00	15.00	-249.00	-70.00	8129.00	8103.00
	-11.00	-14.00	-276.00	46.00	8127.00	8103.00
	-36.00	-36.00	-104.00	121.00	8128.00	8103.00
	-52.00	-37.00	-132.00	116.00	8128.00	8103.00
	-53.00	-31.00	-83.00	100.00	8128.00	8103.00
	-41.00	-27.00	-28.00	51.00	8128.00	8103.00
	-36.00	-15.00	60.00	18.00	8127.00	8103.00
	-28.00	-1.00	124.00	-13.00	8128.00	8103.00
	-8.00	10.00	107.00	-36.00	8128.00	8103.00
	5.00	17.00	-40.00	-56.00	8128.00	8103.00
	19.00	23.00	-112.00	-60.00	8128.00	8103.00
	30.00	26.00	-177.00	-44.00	8128.00	8103.00
	30.00	22.00	-39.00	-18.00	8129.00	8103.00
	15.00	7.00	52.00	12.00	8128.00	8103.00
	3.00	15.00	75.00	-20.00	8128.00	8102.00
	-10.00	6.00	233.00	-17.00	8129.00	8104.00
	-21.00	-2.00	-92.00	5.00	8128.00	8103.00
	-24.00	-6.00	-208.00	25.00	8128.00	8103.00
	-15.00	-5.00	-247.00	3.00	8128.00	8103.00
	-6.00	-17.00	-127.00	13.00	8128.00	8103.00
	5.00	-23.00	-80.00	14.00	8128.00	8103.00
	10.00	-27.00	71.00	-14.00	8128.00	8103.00
	1.00	-18.00	124.00	-15.00	8128.00	8103.00
	-15.00	-22.00	338.00	53.00	8127.00	8103.00
	-23.00	-19.00	392.00	60.00	8128.00	8104.00
	-20.00	-9.00	320.00	78.00	8128.00	8103.00
	-21.00	-6.00	310.00	87.00	8128.00	8103.00
	-8.00	2.00	228.00	9.00	8128.00	8103.00
	22.00	8.00	145.00	-23.00	8128.00	8103.00
	62.00	18.00	74.00	-44.00	8128.00	8103.00
	96.00	32.00	70.00	-46.00	8129.00	8104.00
	102.00	43.00	-169.00	-45.00	8128.00	8103.00
	68.00	44.00	-293.00	-45.00	8128.00	8103.00
	13.00	10.00	-236.00	43.00	8128.00	8103.00
	-45.00	2.00	-39.00	44.00	8127.00	8103.00
	-74.00	-1.00	49.00	63.00	8128.00	8103.00
	-81.00	-22.00	-224.00	116.00	8128.00	8103.00
	-85.00	-42.00	-370.00	10.00	8128.00	8103.00
	-82.00	-39.00	-307.00	-80.00	8128.00	8103.00
	-57.00	-30.00	-212.00	-97.00	8129.00	8104.00
	-9.00	-18.00	-178.00	-43.00	8128.00	8103.00
	11.00	-10.00	-94.00	7.00	8127.00	8103.00
	24.00	-5.00	82.00	-9.00	8129.00	8104.00
	29.00	-3.00	121.00	0.00	8128.00	8104.00
	25.00	11.00	211.00	-11.00	8129.00	8104.00
	16.00	15.00	271.00	-6.00	8128.00	8103.00
	0.00	6.00	214.00	-9.00	8128.00	8103.00
	-5.00	6.00	95.00	-3.00	8128.00	8103.00
	-12.00	2.00	-55.00	-15.00	8128.00	8103.00
	-14.00	4.00	-118.00	-23.00	8128.00	8103.00
	-5.00	6.00	-220.00	-35.00	8128.00	8103.00
	7.00	12.00	-201.00	-39.00	8129.00	8103.00
	22.00	14.00	-99.00	-58.00	8128.00	8102.00
	33.00	13.00	-152.00	-60.00	8128.00	8104.00
	31.00	20.00	-104.00	-62.00	8129.00	8103.00
	17.00	12.00	76.00	-42.00	8129.00	8104.00
	2.00	-13.00	368.00	41.00	8128.00	8103.00
	-12.00	-23.00	298.00	88.00	8128.00	8104.00
	-17.00	-31.00	96.00	107.00	8127.00	8103.00
	-21.00	-35.00	66.00	73.00	8128.00	8102.00
	-16.00	-35.00	83.00	24.00	8127.00	8103.00
	-14.00	-19.00	159.00	-25.00	8127.00	8102.00
	6.00	-9.00	164.00	-39.00	8128.00	8103.00
	19.00	5.00	64.00	-64.00	8128.00	8103.00
	23.00	7.00	-66.00	-78.00	8127.00	8103.00
	20.00	8.00	-139.00	-78.00	8129.00	8103.00
	15.00	8.00	-125.00	-42.00	8129.00	8104.00
	10.00	10.00	-91.00	8.00	8128.00	8103.00
	4.00	18.00	-40.00	69.00	8128.00	8104.00
	-13.00	2.00	-108.00	114.00	8128.00	8103.00
	-20.00	-1.00	-54.00	94.00	8128.00	8103.00
	-8.00	9.00	-12.00	3.00	8128.00	8103.00
	22.00	22.00	-63.00	-96.00	8129.00	8104.00
	42.00	31.00	-49.00	-116.00	8129.00	8103.00
	43.00	27.00	-47.00	-104.00	8128.00	8103.00
	37.00	14.00	-56.00	-57.00	8128.00	8103.00
	19.00	3.00	-62.00	30.00	8128.00	8104.00
	-11.00	-13.00	58.00	134.00	8128.00	8103.00
	-24.00	-24.00	59.00	95.00	8128.00	8103.00
	-23.00	-27.00	-39.00	25.00	8127.00	8103.00
	-13.00	-26.00	-79.00	25.00	8128.00	8103.00
	10.00	-17.00	-39.00	66.00	8128.00	8103.00
	21.00	-22.00	3.00	82.00	8128.00	8103.00
	15.00	-10.00	140.00	-1.00	8129.00	8103.00
	-3.00	-3.00	334.00	-29.00	8129.00	8104.00
	-19.00	-7.00	404.00	-5.00	8129.00	8104.00
	-27.00	3.00	348.00	7.00	8127.00	8103.00
	-37.00	2.00	176.00	20.00	8128.00	8103.00
	-51.00	-4.00	123.00	1.00	8128.00	8103.00
	-40.00	4.00	-4.00	-42.00	8129.00	8104.00
	-8.00	6.00	-199.00	-55.00	8128.00	8103.00
	1.00	9.00	-324.00	-97.00	8128.00	8103.00
	-10.00	5.00	-306.00	-81.00	8128.00	8103.00
	-11.00	-2.00	-317.00	0.00	8128.00	8102.00
	-22.00	-4.00	-336.00	52.00	8127.00	8103.00
	-13.00	-11.00	-219.00	52.00	8127.00	8102.00
	-5.00	-17.00	-182.00	66.00	8127.00	8102.00
	2.00	-10.00	-130.00	11.00	8127.00	8103.00
	12.00	-4.00	-132.00	-77.00	8127.00	8102.00
	11.00	4.00	4.00	-100.00	8126.00	8102.00
	13.00	-5.00	197.00	-18.00	8128.00	8103.00
	4.00	-8.00	464.00	15.00	8127.00	8103.00
	-12.00	-11.00	654.00	52.00	8128.00	8103.00
	-21.00	0.00	369.00	54.00	8127.00	8103.00
	-24.00	-3.00	146.00	29.00	8128.00	8104.00
	-21.00	-5.00	-27.00	30.00	8127.00	8103.00
	-9.00	0.00	-101.00	36.00	8128.00	8104.00
	-5.00	5.00	-155.00	14.00	8127.00	8103.00
	-5.00	12.00	-198.00	-4.00	8128.00	8103.00
	11.00	25.00	-130.00	-65.00	8129.00	8104.00
	25.00	19.00	-85.00	-89.00	8127.00	8103.00
	31.00	18.00	-70.00	-120.00	8128.00	8103.00
	46.00	24.00	-121.00	-88.00	8129.00	8104.00
	48.00	18.00	-121.00	-30.00	8128.00	8103.00
	27.00	-6.00	22.00	71.00	8127.00	8103.00
	0.00	-9.00	-32.00	104.00	8127.00	8103.00
	-4.00	-14.00	-102.00	71.00	8128.00	8103.00
	9.00	-21.00	-175.00	86.00	8129.00	8104.00
	21.00	-35.00	-205.00	86.00	8128.00	8104.00
	20.00	-26.00	-198.00	36.00	8127.00	8103.00
	5.00	-18.00	-162.00	-36.00	8129.00	8103.00
	-12.00	-11.00	96.00	-25.00	8128.00	8103.00
	-29.00	-12.00	494.00	-40.00	8127.00	8102.00
	-35.00	-10.00	222.00	-58.00	8128.00	8104.00
	-25.00	-4.00	-80.00	-55.00	8129.00	8104.00
	11.00	11.00	-222.00	-34.00	8129.00	8104.00
	31.00	12.00	-313.00	41.00	8128.00	8103.00
	22.00	6.00	-287.00	95.00	8128.00	8103.00
	-7.00	3.00	-75.00	69.00	8128.00	8103.00
	-29.00	-3.00	207.00	55.00	8128.00	8104.00
	-21.00	14.00	239.00	37.00	8128.00	8103.00
	-14.00	9.00	120.00	-23.00	8129.00	8103.00
	-35.00	-2.00	150.00	-72.00	8128.00	8103.00
	-50.00	1.00	270.00	-100.00	8128.00	8103.00
	-52.00	-2.00	331.00	-19.00	8129.00	8104.00
	-38.00	-3.00	182.00	53.00	8128.00	8104.00
	-44.00	-26.00	93.00	98.00	8128.00	8103.00
	-47.00	-40.00	-68.00	65.00	8128.00	8103.00
	-33.00	-34.00	-74.00	-2.00	8130.00	8105.00
	-10.00	-24.00	-44.00	-47.00	8129.00	8104.00
	5.00	-18.00	7.00	-63.00	8128.00	8103.00
	20.00	-10.00	65.00	-74.00	8128.00	8103.00
	32.00	4.00	64.00	-95.00	8128.00	8103.00
	48.00	14.00	68.00	-113.00	8128.00	8103.00
	57.00	23.00	73.00	-109.00	8128.00	8103.00
	44.00	25.00	55.00	-84.00	8128.00	8103.00
	27.00	15.00	-87.00	-3.00	8129.00	8104.00
	14.00	17.00	-50.00	58.00	8128.00	8104.00
	3.00	37.00	-111.00	81.00	8128.00	8103.00
	-5.00	26.00	-111.00	105.00	8129.00	8104.00
	-13.00	3.00	-91.00	93.00	8128.00	8104.00
	-3.00	6.00	-108.00	-39.00	8128.00	8103.00
	15.00	17.00	-164.00	-99.00	8129.00	8104.00
	32.00	26.00	-182.00	-119.00	8129.00	8104.00
	55.00	29.00	-127.00	-148.00	8128.00	8103.00
	68.00	28.00	-13.00	-82.00	8129.00	8104.00
	77.00	19.00	51.00	72.00	8128.00	8103.00
	59.00	-10.00	171.00	130.00	8128.00	8103.00
	23.00	-30.00	287.00	134.00	8129.00	8103.00
	-28.00	-34.00	293.00	131.00	8129.00	8104.00
	-65.00	-50.00	309.00	171.00	8129.00	8104.00
	-79.00	-38.00	-98.00	134.00	8128.00	8103.00
	-86.00	-37.00	-221.00	90.00	8128.00	8104.00
	-86.00	-38.00	-233.00	24.00	8128.00	8104.00
	-70.00	-34.00	-216.00	-41.00	8128.00	8103.00
	-36.00	-24.00	-182.00	-38.00	8129.00	8103.00
	-8.00	-14.00	-169.00	-64.00	8128.00	8103.00
	5.00	-1.00	-191.00	-82.00	8129.00	8104.00
	7.00	11.00	-196.00	-83.00	8128.00	8103.00
	20.00	26.00	-142.00	-70.00	8129.00	8103.00
	22.00	28.00	-122.00	-46.00	8129.00	8104.00
	17.00	21.00	60.00	-10.00	8128.00	8104.00
	10.00	22.00	292.00	14.00	8128.00	8103.00
	9.00	12.00	338.00	1.00	8128.00	8103.00
	7.00	9.00	153.00	-17.00	8129.00	8103.00
	7.00	9.00	30.00	-41.00	8129.00	8104.00
	8.00	-10.00	114.00	-20.00	8127.00	8102.00
	12.00	-14.00	115.00	10.00	8128.00	8103.00
	17.00	1.00	-19.00	18.00	8128.00	8104.00
	22.00	5.00	-3.00	11.00	8128.00	8104.00
	12.00	-13.00	141.00	26.00	8127.00	8102.00
	-2.00	-24.00	102.00	24.00	8127.00	8103.00
	-16.00	-27.00	-47.00	22.00	8128.00	8103.00
	-31.00	-36.00	-70.00	6.00	8127.00	8103.00
	-35.00	-37.00	-18.00	-30.00	8128.00	8104.00
	-20.00	-26.00	56.00	-24.00	8128.00	8103.00
	-4.00	-13.00	-28.00	-10.00	8128.00	8103.00
	1.00	-5.00	72.00	-23.00	8130.00	8104.00
	5.00	0.00	115.00	-31.00	8128.00	8103.00
	7.00	7.00	80.00	-43.00	8129.00	8104.00
	22.00	22.00	24.00	-41.00	8128.00	8103.00
	28.00	33.00	-49.00	-47.00	8128.00	8103.00
	29.00	39.00	-166.00	-69.00	8129.00	8104.00
	34.00	44.00	-232.00	-105.00	8128.00	8104.00
	28.00	37.00	-137.00	-121.00	8128.00	8103.00
	16.00	29.00	-26.00	-114.00	8129.00	8104.00
	1.00	25.00	24.00	-61.00	8128.00	8103.00
	-6.00	10.00	5.00	0.00	8129.00	8103.00
	-10.00	4.00	-27.00	92.00	8128.00	8103.00
	-10.00	-1.00	-155.00	156.00	8129.00	8104.00
	2.00	-18.00	-83.00	162.00	8129.00	8105.00
	7.00	-31.00	17.00	73.00	8128.00	8104.00
	29.00	-17.00	25.00	-11.00	8128.00	8102.00
	21.00	2.00	30.00	-63.00	8129.00	8104.00
	9.00	1.00	165.00	-22.00	8129.00	8103.00
	-12.00	-19.00	276.00	86.00	8128.00	8103.00
	-40.00	-13.00	120.00	152.00	8129.00	8104.00
	-59.00	-20.00	-39.00	237.00	8130.00	8104.00
	-71.00	-41.00	-118.00	187.00	8128.00	8103.00
	-60.00	-25.00	-74.00	50.00	8128.00	8104.00
	-49.00	-12.00	26.00	-54.00	8129.00	8104.00
	-12.00	12.00	24.00	-63.00	8129.00	8103.00
	19.00	20.00	58.00	-62.00	8128.00	8103.00
	31.00	16.00	6.00	-62.00	8129.00	8103.00
	36.00	6.00	-87.00	-59.00	8128.00	8103.00
	39.00	-4.00	-233.00	-70.00	8129.00	8103.00
	32.00	-13.00	-252.00	-48.00	8128.00	8103.00
	10.00	-24.00	-214.00	-22.00	8128.00	8103.00
	-11.00	-14.00	-14.00	-4.00	8128.00	8103.00
	-9.00	-7.00	147.00	67.00	8129.00	8104.00
	-2.00	-1.00	201.00	87.00	8128.00	8103.00
	-12.00	-3.00	207.00	78.00	8128.00	8103.00
	-26.00	-34.00	364.00	62.00	8128.00	8103.00
	-38.00	-29.00	314.00	-15.00	8129.00	8103.00
	-39.00	-21.00	171.00	-47.00	8128.00	8103.00
	-33.00	-17.00	-19.00	-25.00	8129.00	8103.00
	-27.00	-5.00	-209.00	-21.00	8129.00	8103.00
	-35.00	2.00	-348.00	-79.00	8128.00	8103.00
	-21.00	19.00	-418.00	-91.00	8128.00	8103.00
	14.00	26.00	-457.00	-77.00	8129.00	8104.00
	38.00	27.00	-380.00	-68.00	8128.00	8103.00
	48.00	18.00	-254.00	-29.00	8128.00	8103.00
	38.00	7.00	27.00	-7.00	8129.00	8103.00
	13.00	7.00	316.00	22.00	8128.00	8103.00
	-6.00	18.00	234.00	36.00	8129.00	8104.00
	-23.00	-2.00	195.00	80.00	8128.00	8103.00
	-20.00	-14.00	219.00	41.00	8128.00	8104.00
	-14.00	-11.00	197.00	-30.00	8129.00	8104.00
	-10.00	-10.00	186.00	-63.00	8128.00	8103.00
	9.00	-6.00	150.00	-60.00	8128.00	8103.00
	18.00	-2.00	72.00	-73.00	8128.00	8103.00
	16.00	3.00	-2.00	-63.00	8128.00	8103.00
	10.00	-2.00	-43.00	-24.00	8128.00	8103.00
	1.00	-1.00	-59.00	9.00	8127.00	8102.00
	0.00	1.00	-50.00	20.00	8127.00	8103.00
	-5.00	3.00	-75.00	34.00	8127.00	8102.00
	-7.00	-3.00	35.00	39.00	8129.00	8104.00
	-5.00	0.00	32.00	5.00	8127.00	8103.00
	5.00	8.00	23.00	-17.00	8128.00	8103.00
	15.00	10.00	55.00	-4.00	8129.00	8103.00
	20.00	13.00	-6.00	2.00	8128.00	8103.00
	29.00	16.00	-64.00	-4.00	8129.00	8103.00
	40.00	16.00	-119.00	-27.00	8128.00	8103.00
	38.00	4.00	-68.00	-40.00	8128.00	8103.00
	22.00	-4.00	82.00	-14.00	8128.00	8103.00
	11.00	-14.00	198.00	24.00	8128.00	8104.00
	-3.00	-3.00	45.00	65.00	8128.00	8103.00
	-14.00	8.00	7.00	75.00	8127.00	8103.00
	-14.00	2.00	31.00	67.00	8128.00	8103.00
	-23.00	-17.00	-20.00	59.00	8128.00	8103.00
	-16.00	-17.00	-75.00	11.00	8128.00	8103.00
	-2.00	-13.00	-56.00	14.00	8128.00	8103.00
	-3.00	-15.00	-93.00	28.00	8127.00	8103.00
	-9.00	-14.00	-140.00	28.00	8128.00	8104.00
	-17.00	-10.00	-149.00	-13.00	8128.00	8103.00
	-12.00	0.00	-70.00	-81.00	8128.00	8103.00
	-4.00	5.00	-17.00	-77.00	8128.00	8103.00
	4.00	11.00	12.00	-31.00	8129.00	8104.00
	3.00	11.00	-10.00	-1.00	8129.00	8104.00
	-2.00	5.00	84.00	22.00	8127.00	8103.00
	-10.00	-2.00	183.00	60.00	8128.00	8104.00
	-20.00	-7.00	143.00	48.00	8128.00	8103.00
	-23.00	-2.00	77.00	11.00	8128.00	8104.00
	-14.00	1.00	20.00	-10.00	8128.00	8103.00
	-5.00	-4.00	-16.00	3.00	8128.00	8103.00
	-7.00	-10.00	-140.00	-14.00	8128.00	8103.00
	-11.00	-4.00	-239.00	-53.00	8128.00	8104.00
	-6.00	-2.00	-209.00	-66.00	8129.00	8104.00
	3.00	-3.00	-178.00	-47.00	8128.00	8103.00
	13.00	-12.00	-122.00	-17.00	8129.00	8104.00
	20.00	-13.00	-58.00	40.00	8127.00	8103.00
	20.00	-1.00	71.00	44.00	8128.00	8103.00
	12.00	-4.00	228.00	43.00	8128.00	8103.00
	4.00	-5.00	140.00	26.00	8128.00	8103.00
	6.00	-7.00	49.00	-10.00	8128.00	8103.00
	1.00	-5.00	46.00	-21.00	8129.00	8103.00
	-5.00	2.00	34.00	-37.00	8128.00	8103.00
	-12.00	3.00	67.00	-36.00	8128.00	8102.00
	-17.00	4.00	86.00	-20.00	8128.00	8102.00
	-12.00	11.00	115.00	8.00	8128.00	8103.00
	-13.00	3.00	95.00	30.00	8127.00	8102.00
	-13.00	8.00	69.00	-7.00	8129.00	8104.00
	-8.00	14.00	55.00	-51.00	8128.00	8103.00
	7.00	23.00	-17.00	-92.00	8128.00	8103.00
	17.00	22.00	-88.00	-82.00	8129.00	8104.00
	21.00	13.00	-142.00	-52.00	8128.00	8103.00
	20.00	-5.00	-137.00	-4.00	8129.00	8104.00
	15.00	-9.00	-51.00	7.00	8128.00	8103.00
	18.00	-16.00	43.00	51.00	8128.00	8103.00
	13.00	-27.00	2.00	45.00	8127.00	8103.00
	11.00	-20.00	-44.00	-5.00	8128.00	8103.00
	8.00	-16.00	59.00	-14.00	8128.00	8103.00
	14.00	-12.00	131.00	25.00	8128.00	8104.00
	14.00	5.00	62.00	15.00	8128.00	8104.00
	20.00	8.00	-11.00	-42.00	8128.00	8103.00
	32.00	9.00	22.00	-40.00	8128.00	8103.00
	27.00	9.00	-22.00	-11.00	8128.00	8103.00
	14.00	3.00	-95.00	32.00	8128.00	8103.00
	-17.00	-4.00	-67.00	58.00	8128.00	8103.00
	-44.00	-7.00	-120.00	64.00	8128.00	8103.00
	-72.00	-4.00	-43.00	146.00	8129.00	8103.00
	-84.00	-13.00	106.00	169.00	8128.00	8103.00
	-82.00	-14.00	132.00	89.00	8128.00	8103.00
	-56.00	-10.00	71.00	26.00	8129.00	8104.00
	-34.00	-9.00	20.00	-7.00	8128.00	8103.00
	-20.00	-6.00	-37.00	-21.00	8128.00	8103.00
	-14.00	-8.00	-97.00	-32.00	8129.00	8103.00
	6.00	-5.00	-149.00	-35.00	8128.00	8102.00
	23.00	-2.00	-94.00	-36.00	8129.00	8103.00
	31.00	4.00	-25.00	-48.00	8128.00	8103.00
	34.00	1.00	74.00	-66.00	8129.00	8103.00
	33.00	0.00	149.00	-90.00	8128.00	8103.00
	23.00	6.00	103.00	-61.00	8128.00	8103.00
	21.00	4.00	-24.00	-28.00	8128.00	8102.00
	23.00	8.00	-88.00	-32.00	8127.00	8103.00
	21.00	-3.00	-72.00	-33.00	8127.00	8103.00
	27.00	5.00	-120.00	-26.00	8128.00	8103.00
	30.00	13.00	-63.00	-66.00	8128.00	8102.00
	32.00	7.00	163.00	-49.00	8128.00	8103.00
	19.00	3.00	95.00	19.00	8126.00	8102.00
	-2.00	9.00	49.00	67.00	8127.00	8103.00
	-26.00	4.00	-121.00	132.00	8127.00	8102.00
	-53.00	-17.00	-198.00	145.00	8128.00	8103.00
	-65.00	-23.00	-98.00	90.00	8128.00	8103.00
	-71.00	-16.00	-88.00	9.00	8127.00	8103.00
	-48.00	-8.00	-83.00	6.00	8127.00	8102.00
	-28.00	-10.00	-69.00	-7.00	8128.00	8102.00
	-13.00	-7.00	-46.00	-27.00	8127.00	8102.00
	6.00	-2.00	-43.00	-30.00	8128.00	8102.00
	26.00	2.00	-52.00	-26.00	8128.00	8103.00
	34.00	4.00	7.00	-46.00	8128.00	8103.00
	42.00	1.00	2.00	-54.00	8128.00	8103.00
	42.00	0.00	9.00	-64.00	8127.00	8102.00
	32.00	-3.00	187.00	-66.00	8129.00	8103.00
	19.00	-21.00	349.00	-38.00	8127.00	8102.00
	-11.00	-38.00	322.00	-5.00	8128.00	8103.00
	-23.00	-6.00	170.00	-33.00	8128.00	8103.00
	-13.00	18.00	1.00	-85.00	8128.00	8103.00
	17.00	28.00	-107.00	-96.00	8127.00	8102.00
	27.00	30.00	-127.00	-149.00	8128.00	8103.00
	20.00	18.00	4.00	-86.00	8128.00	8103.00
	16.00	4.00	191.00	69.00	8128.00	8103.00
	10.00	-2.00	134.00	175.00	8128.00	8103.00
	-6.00	-5.00	30.00	212.00	8128.00	8103.00
	-24.00	-14.00	0.00	163.00	8129.00	8104.00
	-35.00	-12.00	-4.00	40.00	8128.00	8103.00
	-30.00	-4.00	-70.00	-15.00	8129.00	8103.00
	-11.00	-4.00	-46.00	-21.00	8128.00	8103.00
	-10.00	-15.00	-12.00	-15.00	8128.00	8103.00
	-9.00	-17.00	-21.00	12.00	8127.00	8103.00
	-13.00	-20.00	33.00	72.00	8129.00	8104.00
	-15.00	-22.00	92.00	89.00	8128.00	8103.00
	-16.00	-23.00	50.00	70.00	8128.00	8103.00
	-12.00	-18.00	11.00	-14.00	8128.00	8103.00
	6.00	8.00	-94.00	-69.00	8129.00	8104.00
	23.00	18.00	-85.00	-51.00	8128.00	8103.00
	36.00	18.00	-85.00	-38.00	8128.00	8103.00
	31.00	18.00	-141.00	-35.00	8128.00	8103.00
	15.00	23.00	-184.00	-25.00	8128.00	8103.00
	-6.00	25.00	-115.00	-37.00	8129.00	8103.00
	-9.00	11.00	-11.00	-14.00	8129.00	8103.00
	-17.00	-2.00	-194.00	-55.00	8128.00	8103.00
	-5.00	6.00	-215.00	-114.00	8128.00	8103.00
	19.00	9.00	-240.00	-130.00	8128.00	8104.00
	41.00	16.00	-179.00	-79.00	8128.00	8103.00
	46.00	23.00	-49.00	-37.00	8128.00	8103.00
	25.00	18.00	31.00	15.00	8128.00	8104.00
	-4.00	12.00	34.00	82.00	8127.00	8103.00
	-27.00	-9.00	205.00	145.00	8128.00	8103.00
	-47.00	-32.00	382.00	151.00	8128.00	8103.00
	-50.00	-46.00	342.00	136.00	8128.00	8103.00
	-44.00	-46.00	205.00	82.00	8128.00	8104.00
	-33.00	-44.00	120.00	25.00	8127.00	8103.00
	-26.00	-34.00	80.00	-18.00	8128.00	8103.00
	-15.00	-17.00	111.00	-34.00	8128.00	8104.00
	-5.00	-9.00	103.00	-25.00	8129.00	8104.00
	0.00	-8.00	30.00	13.00	8127.00	8103.00
	7.00	-1.00	-83.00	4.00	8127.00	8103.00
	11.00	9.00	-102.00	-24.00	8129.00	8104.00
	17.00	18.00	-113.00	-72.00	8129.00	8104.00
	16.00	20.00	-183.00	-90.00	8129.00	8104.00
	13.00	17.00	-108.00	-114.00	8128.00	8104.00
	6.00	20.00	-66.00	-92.00	8129.00	8104.00
	-5.00	28.00	-70.00	-50.00	8129.00	8103.00
	-10.00	13.00	-26.00	14.00	8128.00	8103.00
	-7.00	-5.00	79.00	55.00	8129.00	8104.00
	1.00	-13.00	47.00	87.00	8128.00	8103.00
	12.00	-13.00	24.00	92.00	8128.00	8103.00
	15.00	-12.00	-10.00	42.00	8129.00	8104.00
	-3.00	-10.00	60.00	5.00	8127.00	8103.00
	-12.00	-14.00	120.00	16.00	8127.00	8103.00
	-16.00	-13.00	43.00	-2.00	8128.00	8103.00
	-16.00	2.00	-7.00	-20.00	8129.00	8103.00
	-21.00	-1.00	26.00	-36.00	8128.00	8103.00
	-22.00	-10.00	8.00	-47.00	8129.00	8104.00
	-17.00	-18.00	-8.00	-23.00	8129.00	8104.00
	3.00	-3.00	33.00	-1.00	8129.00	8104.00
	9.00	7.00	86.00	4.00	8128.00	8104.00
	11.00	8.00	91.00	-21.00	8129.00	8104.00
	12.00	12.00	66.00	-50.00	8129.00	8103.00
	13.00	15.00	6.00	-40.00	8129.00	8104.00
	12.00	19.00	-53.00	-19.00	8129.00	8104.00
	8.00	20.00	-110.00	2.00	8129.00	8105.00
	7.00	16.00	-134.00	28.00	8127.00	8103.00
	9.00	10.00	-171.00	25.00	8128.00	8104.00
	18.00	2.00	-205.00	12.00	8128.00	8103.00
	26.00	-9.00	-198.00	11.00	8127.00	8103.00
	39.00	-11.00	-165.00	-18.00	8129.00	8104.00
	40.00	-10.00	-87.00	-62.00	8129.00	8103.00
	35.00	-13.00	-62.00	-91.00	8129.00	8104.00
	18.00	-21.00	65.00	-43.00	8129.00	8104.00
	-3.00	-19.00	144.00	13.00	8128.00	8103.00
	-24.00	-20.00	94.00	88.00	8129.00	8104.00
	-40.00	-17.00	37.00	120.00	8129.00	8104.00
	-42.00	-20.00	11.00	119.00	8128.00	8103.00
	-49.00	-12.00	33.00	61.00	8128.00	8103.00
	-34.00	-5.00	107.00	31.00	8128.00	8103.00
	-22.00	4.00	149.00	-3.00	8129.00	8103.00
	-8.00	10.00	130.00	-7.00	8129.00	8104.00
	10.00	14.00	74.00	-5.00	8128.00	8103.00
	28.00	22.00	-54.00	16.00	8128.00	8104.00
	43.00	28.00	-180.00	16.00	8127.00	8103.00
	43.00	32.00	-227.00	-34.00	8129.00	8103.00
	36.00	22.00	-162.00	-86.00	8128.00	8103.00
	18.00	21.00	-130.00	-106.00	8128.00	8103.00
	9.00	4.00	-69.00	-88.00	8128.00	8104.00
	-16.00	-8.00	63.00	-47.00	8128.00	8103.00
	-44.00	-17.00	238.00	-48.00	8129.00	8104.00
	-56.00	-25.00	115.00	-4.00	8129.00	8104.00
	-48.00	-29.00	85.00	39.00	8128.00	8103.00
	-34.00	-39.00	85.00	105.00	8128.00	8103.00
	-34.00	-41.00	81.00	98.00	8128.00	8103.00
	-25.00	-33.00	55.00	23.00	8128.00	8103.00
	-5.00	-10.00	35.00	-40.00	8128.00	8103.00
	22.00	2.00	80.00	-32.00	8129.00	8103.00
	34.00	6.00	-8.00	-17.00	8128.00	8103.00
	29.00	8.00	-71.00	32.00	8128.00	8104.00
	12.00	2.00	-13.00	40.00	8128.00	8103.00
	0.00	-10.00	-45.00	44.00	8128.00	8103.00
	-17.00	-3.00	-99.00	44.00	8128.00	8103.00
	-35.00	12.00	-93.00	-11.00	8129.00	8104.00
	-32.00	16.00	-5.00	-52.00	8129.00	8103.00
	-21.00	15.00	-19.00	-48.00	8129.00	8104.00
	-16.00	18.00	-52.00	-39.00	8128.00	8103.00
	-7.00	23.00	-10.00	-35.00	8128.00	8103.00
	1.00	12.00	56.00	-3.00	8128.00	8103.00
	5.00	-1.00	67.00	16.00	8127.00	8103.00
	8.00	-4.00	145.00	3.00	8128.00	8104.00
	15.00	2.00	209.00	-20.00	8129.00	8103.00
	22.00	4.00	166.00	-14.00	8128.00	8103.00
	19.00	-8.00	97.00	-16.00	8128.00	8103.00
	11.00	-12.00	72.00	-22.00	8128.00	8103.00
	11.00	-17.00	90.00	-11.00	8129.00	8103.00
	10.00	-24.00	-6.00	18.00	8128.00	8103.00
	1.00	-22.00	-100.00	50.00	8128.00	8103.00
	-11.00	-21.00	-139.00	64.00	8128.00	8104.00
	0.00	-8.00	-215.00	5.00	8127.00	8103.00
	9.00	2.00	-223.00	-24.00	8128.00	8103.00
	15.00	11.00	-258.00	-26.00	8128.00	8103.00
	28.00	18.00	-287.00	-36.00	8128.00	8103.00
	34.00	17.00	-285.00	-52.00	8128.00	8103.00
	39.00	18.00	-207.00	-34.00	8128.00	8102.00
	41.00	18.00	6.00	-66.00	8129.00	8104.00
	26.00	23.00	49.00	-103.00	8129.00	8103.00
	17.00	16.00	45.00	-24.00	8128.00	8103.00
	1.00	7.00	139.00	40.00	8128.00	8103.00
	-22.00	-9.00	220.00	97.00	8128.00	8103.00
	-42.00	-15.00	271.00	107.00	8127.00	8102.00
	-44.00	-15.00	223.00	105.00	8128.00	8102.00
	-33.00	-14.00	117.00	87.00	8128.00	8103.00
	-18.00	-27.00	84.00	53.00	8128.00	8103.00
	-19.00	-29.00	106.00	-19.00	8128.00	8103.00
	-24.00	-20.00	107.00	-70.00	8127.00	8102.00
	-11.00	-8.00	-90.00	-62.00	8128.00	8103.00
	0.00	-7.00	-83.00	-19.00	8128.00	8103.00
	1.00	-7.00	-22.00	8.00	8127.00	8104.00
	1.00	-5.00	-100.00	-14.00	8128.00	8103.00
	5.00	-5.00	-93.00	-53.00	8129.00	8104.00
	1.00	-8.00	-56.00	-41.00	8128.00	8103.00
	0.00	1.00	36.00	-36.00	8129.00	8104.00
	-4.00	10.00	-19.00	21.00	8128.00	8103.00
	-9.00	5.00	-56.00	23.00	8127.00	8104.00
	1.00	1.00	-5.00	20.00	8127.00	8103.00
	4.00	3.00	73.00	2.00	8128.00	8103.00
	-3.00	6.00	145.00	29.00	8127.00	8103.00
	-5.00	3.00	145.00	46.00	8127.00	8103.00
	1.00	12.00	104.00	35.00	8128.00	8104.00
	1.00	5.00	-8.00	30.00	8128.00	8104.00
	-4.00	1.00	-41.00	-18.00	8129.00	8104.00
	-5.00	4.00	-107.00	-47.00	8129.00	8104.00
	-8.00	1.00	-168.00	-36.00	8128.00	8103.00
	-6.00	-4.00	-116.00	-5.00	8129.00	8104.00
	-3.00	-7.00	-19.00	-9.00	8128.00	8104.00
	1.00	-14.00	-3.00	28.00	8129.00	8104.00
	7.00	-15.00	-76.00	17.00	8128.00	8104.00
	11.00	-8.00	-61.00	-18.00	8129.00	8103.00
	17.00	5.00	-44.00	-68.00	8128.00	8103.00
	20.00	10.00	20.00	-48.00	8128.00	8104.00
	12.00	4.00	77.00	-58.00	8128.00	8103.00
	5.00	7.00	79.00	-73.00	8128.00	8103.00
	-18.00	-4.00	125.00	-62.00	8128.00	8103.00
	-28.00	-8.00	102.00	-5.00	8129.00	8103.00
	-28.00	-7.00	14.00	85.00	8129.00	8104.00
	-23.00	7.00	-42.00	106.00	8128.00	8103.00
	-20.00	10.00	-63.00	98.00	8128.00	8103.00
	-7.00	17.00	-41.00	57.00	8129.00	8104.00
	-3.00	7.00	61.00	26.00	8128.00	8103.00
	-4.00	3.00	35.00	12.00	8127.00	8103.00
	5.00	5.00	95.00	1.00	8128.00	8103.00
	11.00	-2.00	59.00	14.00	8128.00	8104.00
	14.00	-13.00	45.00	39.00	8128.00	8103.00
	14.00	-27.00	12.00	21.00	8128.00	8103.00
	2.00	-26.00	-26.00	-34.00	8128.00	8103.00
	1.00	-19.00	-85.00	-57.00	8129.00	8103.00
	6.00	-6.00	-97.00	-59.00	8128.00	8103.00
	6.00	0.00	-12.00	-30.00	8129.00	8103.00
	-2.00	0.00	-2.00	-7.00	8128.00	8103.00
	-4.00	-8.00	-15.00	25.00	8128.00	8104.00
	-9.00	-1.00	-18.00	3.00	8128.00	8104.00
	-3.00	9.00	-57.00	-35.00	8129.00	8104.00
	9.00	16.00	-99.00	-70.00	8129.00	8103.00
	30.00	26.00	-196.00	-63.00	8129.00	8103.00
	36.00	25.00	-239.00	-13.00	8129.00	8103.00
	36.00	25.00	-215.00	-6.00	8129.00	8104.00
	25.00	20.00	-137.00	-7.00	8128.00	8103.00
	10.00	0.00	90.00	26.00	8128.00	8103.00
	-10.00	-10.00	115.00	53.00	8128.00	8103.00
	-28.00	-26.00	47.00	62.00	8128.00	8103.00
	-45.00	-31.00	55.00	39.00	8128.00	8103.00
	-47.00	-23.00	84.00	6.00	8126.00	8102.00
	-42.00	-8.00	102.00	-27.00	8129.00	8104.00
	-11.00	-14.00	41.00	-29.00	8128.00	8103.00
	7.00	1.00	-2.00	-86.00	8128.00	8103.00
	21.00	11.00	15.00	-84.00	8128.00	8103.00
	22.00	10.00	34.00	-34.00	8129.00	8103.00
	12.00	-5.00	66.00	32.00	8127.00	8103.00
	5.00	-20.00	140.00	90.00	8128.00	8103.00
	-8.00	-8.00	211.00	94.00	8128.00	8103.00
	-14.00	0.00	69.00	54.00	8129.00	8104.00
	-7.00	4.00	-28.00	-12.00	8129.00	8103.00
	2.00	10.00	27.00	-31.00	8129.00	8103.00
	4.00	13.00	101.00	7.00	8128.00	8103.00
	11.00	15.00	133.00	20.00	8127.00	8102.00
	0.00	19.00	80.00	17.00	8128.00	8103.00
	-2.00	9.00	-54.00	-2.00	8128.00	8102.00
	-4.00	-5.00	-123.00	-14.00	8127.00	8102.00
	-4.00	-7.00	-207.00	13.00	8126.00	8102.00
	-5.00	-5.00	-244.00	27.00	8127.00	8103.00
	-18.00	-29.00	-149.00	53.00	8128.00	8103.00
	-26.00	-44.00	25.00	36.00	8127.00	8103.00
	-26.00	-38.00	97.00	-8.00	8128.00	8103.00
	-19.00	-27.00	-8.00	-21.00	8128.00	8103.00
	-11.00	-16.00	-51.00	-38.00	8128.00	8103.00
	2.00	-3.00	-22.00	-59.00	8128.00	8104.00
	18.00	6.00	106.00	-108.00	8128.00	8103.00
	47.00	18.00	115.00	-112.00	8128.00	8103.00
	63.00	27.00	91.00	-86.00	8128.00	8103.00
	56.00	27.00	157.00	-87.00	8128.00	8103.00
	36.00	21.00	104.00	-43.00	8129.00	8104.00
	10.00	18.00	79.00	70.00	8127.00	8103.00
	-11.00	13.00	48.00	164.00	8128.00	8103.00
	-22.00	2.00	14.00	142.00	8128.00	8104.00
	-40.00	-7.00	96.00	59.00	8127.00	8103.00
	-52.00	-7.00	-37.00	-42.00	8128.00	8104.00
	-37.00	-4.00	-40.00	-62.00	8128.00	8103.00
	-21.00	-6.00	-50.00	-31.00	8128.00	8103.00
	-17.00	-8.00	-144.00	-6.00	8128.00	8103.00
	-11.00	-5.00	-272.00	-5.00	8128.00	8103.00
	3.00	-4.00	-341.00	28.00	8128.00	8103.00
	21.00	4.00	-309.00	3.00	8127.00	8103.00
	25.00	3.00	-240.00	-28.00	8128.00	8104.00
	26.00	-1.00	-135.00	-82.00	8128.00	8103.00
	16.00	-6.00	35.00	-107.00	8128.00	8103.00
	6.00	-9.00	257.00	-87.00	8129.00	8104.00
	2.00	-17.00	243.00	-5.00	8129.00	8104.00
	-11.00	-16.00	69.00	88.00	8129.00	8104.00
	-15.00	-7.00	-19.00	127.00	8128.00	8103.00
	-22.00	-8.00	27.00	102.00	8129.00	8104.00
	-17.00	2.00	19.00	80.00	8128.00	8103.00
	-7.00	6.00	-18.00	34.00	8129.00	8104.00
	0.00	9.00	-5.00	-3.00	8128.00	8103.00
	-3.00	-1.00	7.00	-23.00	8128.00	8103.00
	0.00	4.00	-2.00	-51.00	8128.00	8103.00
	5.00	0.00	109.00	-42.00	8129.00	8103.00
	-3.00	-3.00	140.00	-13.00	8129.00	8103.00
	-4.00	-3.00	86.00	45.00	8128.00	8104.00
	2.00	5.00	-3.00	60.00	8128.00	8104.00
	6.00	3.00	23.00	64.00	8128.00	8104.00
	4.00	-5.00	40.00	35.00	8128.00	8103.00
	-9.00	-16.00	11.00	6.00	8128.00	8104.00
	-14.00	-12.00	33.00	-23.00	8128.00	8103.00
	-5.00	-4.00	43.00	-90.00	8129.00	8104.00
	6.00	1.00	28.00	-93.00	8129.00	8103.00
	10.00	10.00	-22.00	-113.00	8128.00	8104.00
	12.00	10.00	-58.00	-99.00	8128.00	8104.00
	2.00	10.00	-118.00	0.00	8129.00	8104.00
	-5.00	14.00	31.00	77.00	8127.00	8103.00
	-11.00	-6.00	118.00	134.00	8128.00	8103.00
	-19.00	-11.00	73.00	85.00	8128.00	8103.00
	-5.00	-1.00	-127.00	25.00	8128.00	8103.00
	7.00	6.00	-129.00	-50.00	8129.00	8104.00
	26.00	15.00	-118.00	-119.00	8128.00	8103.00
	32.00	12.00	-71.00	-119.00	8128.00	8103.00
	18.00	12.00	-9.00	-90.00	8128.00	8103.00
	7.00	2.00	60.00	11.00	8128.00	8103.00
	-2.00	-1.00	24.00	100.00	8128.00	8103.00
	-13.00	-9.00	25.00	122.00	8128.00	8103.00
	-25.00	-38.00	241.00	123.00	8128.00	8104.00
	-32.00	-33.00	140.00	39.00	8129.00	8104.00
	-20.00	-19.00	74.00	-20.00	8129.00	8103.00
	-8.00	-8.00	100.00	-41.00	8128.00	8103.00
	3.00	-5.00	129.00	-25.00	8128.00	8103.00
	2.00	-8.00	90.00	-10.00	8128.00	8103.00
	2.00	-2.00	-87.00	-47.00	8128.00	8103.00
	28.00	12.00	-159.00	-80.00	8127.00	8102.00
	51.00	21.00	-201.00	-118.00	8128.00	8103.00
	52.00	26.00	-286.00	-142.00	8129.00	8103.00
	33.00	20.00	-369.00	-152.00	8129.00	8104.00
	5.00	9.00	-262.00	-90.00	8128.00	8103.00
	-18.00	-8.00	56.00	44.00	8127.00	8103.00
	-34.00	-35.00	154.00	229.00	8128.00	8103.00
	-25.00	-19.00	61.00	216.00	8128.00	8103.00
	-10.00	-10.00	106.00	130.00	8128.00	8103.00
	3.00	0.00	273.00	11.00	8127.00	8104.00
	13.00	8.00	264.00	-16.00	8128.00	8103.00
	13.00	11.00	132.00	-32.00	8128.00	8103.00
	-4.00	-2.00	-38.00	-18.00	8128.00	8103.00
	-37.00	-12.00	-116.00	45.00	8128.00	8103.00
	-62.00	-24.00	-161.00	99.00	8127.00	8102.00
	-73.00	-40.00	-193.00	124.00	8128.00	8103.00
	-72.00	-41.00	-85.00	63.00	8127.00	8103.00
	-54.00	-34.00	-29.00	28.00	8128.00	8104.00
	-34.00	-19.00	-46.00	-13.00	8128.00	8103.00
	-15.00	-5.00	-71.00	-36.00	8128.00	8102.00
	2.00	0.00	-51.00	-38.00	8128.00	8103.00
	11.00	-1.00	-7.00	-34.00	8127.00	8102.00
	19.00	7.00	57.00	-28.00	8128.00	8103.00
	27.00	17.00	78.00	-42.00	8128.00	8103.00
	40.00	20.00	86.00	-57.00	8129.00	8103.00
	48.00	23.00	38.00	-94.00	8128.00	8103.00
	58.00	36.00	-41.00	-124.00	8127.00	8102.00
	55.00	38.00	-52.00	-108.00	8128.00	8103.00
	39.00	24.00	76.00	-42.00	8128.00	8103.00
	11.00	33.00	227.00	-2.00	8129.00	8104.00
	-3.00	23.00	129.00	54.00	8127.00	8102.00
	-19.00	-6.00	-11.00	118.00	8127.00	8103.00
	-35.00	-26.00	-30.00	86.00	8128.00	8103.00
	-33.00	-22.00	-54.00	17.00	8128.00	8103.00
	-24.00	-12.00	-6.00	-21.00	8128.00	8103.00
	-9.00	-14.00	89.00	-10.00	8128.00	8103.00
	3.00	-13.00	85.00	-21.00	8128.00	8103.00
	12.00	-13.00	38.00	-41.00	8128.00	8104.00
	34.00	-8.00	-30.00	-70.00	8128.00	8103.00
	49.00	1.00	-64.00	-93.00	8128.00	8103.00
	49.00	8.00	-91.00	-91.00	8128.00	8103.00
	36.00	13.00	-99.00	-75.00	8128.00	8103.00
	17.00	5.00	-120.00	-29.00	8128.00	8103.00
	-6.00	-3.00	-89.00	35.00	8127.00	8102.00
	-14.00	0.00	-45.00	73.00	8128.00	8103.00
	-27.00	7.00	-59.00	86.00	8128.00	8103.00
	-35.00	-2.00	-73.00	91.00	8128.00	8104.00
	-29.00	1.00	-93.00	10.00	8128.00	8103.00
	1.00	14.00	12.00	-7.00	8128.00	8103.00
	14.00	12.00	74.00	-9.00	8128.00	8103.00
	13.00	2.00	102.00	-1.00	8128.00	8103.00
	4.00	-3.00	116.00	-19.00	8128.00	8103.00
	-10.00	-14.00	171.00	-32.00	8128.00	8103.00
	-25.00	-27.00	232.00	37.00	8127.00	8103.00
	-27.00	-15.00	41.00	69.00	8127.00	8103.00
	-28.00	-8.00	-151.00	79.00	8128.00	8104.00
	-38.00	-17.00	-173.00	48.00	8128.00	8103.00
	-27.00	-15.00	-144.00	50.00	8128.00	8104.00
	-6.00	-14.00	-159.00	20.00	8128.00	8104.00
	17.00	1.00	-171.00	-58.00	8128.00	8104.00
	27.00	4.00	-66.00	-121.00	8128.00	8104.00
	43.00	6.00	-59.00	-118.00	8128.00	8103.00
	34.00	12.00	-175.00	-104.00	8128.00	8103.00
	17.00	15.00	-85.00	-20.00	8128.00	8103.00
	-13.00	-12.00	288.00	138.00	8128.00	8103.00
	-31.00	-27.00	399.00	175.00	8129.00	8103.00
	-46.00	-27.00	381.00	164.00	8128.00	8103.00
	-51.00	-21.00	303.00	71.00	8128.00	8103.00
	-37.00	2.00	82.00	0.00	8130.00	8104.00
	-18.00	13.00	-36.00	-33.00	8128.00	8103.00
	5.00	20.00	-96.00	-40.00	8128.00	8103.00
	9.00	22.00	-144.00	-49.00	8129.00	8104.00
	2.00	12.00	-59.00	-34.00	8128.00	8103.00
	5.00	0.00	7.00	-15.00	8128.00	8103.00
	7.00	-1.00	14.00	-44.00	8128.00	8103.00
	2.00	-8.00	1.00	-59.00	8129.00	8104.00
	-14.00	-6.00	16.00	-71.00	8129.00	8104.00
	-18.00	-11.00	79.00	-30.00	8129.00	8103.00
	4.00	-8.00	11.00	13.00	8128.00	8104.00
	12.00	-6.00	-115.00	30.00	8128.00	8103.00
	12.00	-11.00	-112.00	50.00	8129.00	8104.00
	6.00	-13.00	-25.00	27.00	8128.00	8103.00
	14.00	-3.00	-47.00	-15.00	8129.00	8104.00
	25.00	0.00	-92.00	-31.00	8128.00	8103.00
	20.00	-3.00	-61.00	-24.00	8128.00	8103.00
	14.00	1.00	-27.00	-30.00	8129.00	8104.00
	12.00	10.00	-18.00	-41.00	8130.00	8104.00
	9.00	9.00	-10.00	-23.00	8129.00	8104.00
	1.00	3.00	59.00	2.00	8129.00	8104.00
	1.00	1.00	145.00	-4.00	8129.00	8104.00
	2.00	0.00	90.00	3.00	8128.00	8104.00
	4.00	-3.00	46.00	20.00	8128.00	8103.00
	21.00	7.00	16.00	11.00	8127.00	8103.00
	41.00	15.00	-39.00	-61.00	8128.00	8103.00
	51.00	12.00	-37.00	-75.00	8129.00	8104.00
	43.00	10.00	-110.00	-74.00	8128.00	8103.00
	35.00	12.00	6.00	-85.00	8128.00	8103.00
	16.00	4.00	-33.00	-55.00	8128.00	8103.00
	-2.00	-13.00	43.00	-7.00	8129.00	8104.00
	-27.00	-17.00	105.00	32.00	8128.00	8103.00
	-48.00	-6.00	2.00	20.00	8128.00	8103.00
	-44.00	-16.00	-48.00	73.00	8128.00	8104.00
	-52.00	-25.00	-148.00	92.00	8128.00	8103.00
	-72.00	-29.00	-170.00	121.00	8128.00	8103.00
	-78.00	-39.00	-36.00	131.00	8128.00	8103.00
	-60.00	-15.00	-133.00	112.00	8129.00	8104.00
	-31.00	1.00	-199.00	44.00	8128.00	8103.00
	4.00	14.00	-140.00	-2.00	8129.00	8103.00
	24.00	20.00	-79.00	-13.00	8129.00	8104.00
	25.00	23.00	18.00	-35.00	8129.00	8103.00
	30.00	29.00	107.00	-58.00	8129.00	8103.00
	37.00	26.00	67.00	-71.00	8127.00	8103.00
	29.00	17.00	64.00	-34.00	8128.00	8103.00
	13.00	-14.00	45.00	-3.00	8128.00	8103.00
	-13.00	-39.00	87.00	-22.00	8128.00	8103.00
	-38.00	-49.00	94.00	-9.00	8128.00	8103.00
	-44.00	-30.00	43.00	22.00	8128.00	8103.00
	-30.00	-19.00	68.00	74.00	8128.00	8103.00
	-25.00	-15.00	51.00	54.00	8127.00	8102.00
	-17.00	-5.00	-16.00	28.00	8128.00	8103.00
	7.00	5.00	32.00	6.00	8127.00	8103.00
	26.00	5.00	67.00	-4.00	8128.00	8103.00
	33.00	12.00	168.00	-21.00	8128.00	8102.00
	36.00	11.00	261.00	-41.00	8129.00	8103.00
	26.00	10.00	259.00	-47.00	8128.00	8103.00
	16.00	10.00	248.00	-41.00	8128.00	8103.00
	11.00	14.00	9.00	-57.00	8129.00	8104.00
	19.00	15.00	-211.00	-30.00	8128.00	8102.00
	26.00	18.00	-276.00	-11.00	8128.00	8103.00
	12.00	12.00	-313.00	-19.00	8129.00	8103.00
	1.00	13.00	-239.00	-45.00	8128.00	8102.00
	7.00	17.00	-133.00	-64.00	8128.00	8103.00
	11.00	2.00	-149.00	-34.00	8128.00	8103.00
	9.00	-9.00	-75.00	-25.00	8128.00	8102.00
	-12.00	-17.00	-3.00	-19.00	8127.00	8102.00
	-28.00	-23.00	-92.00	-26.00	8128.00	8103.00
	-26.00	-27.00	16.00	-4.00	8128.00	8103.00
	-6.00	-20.00	-117.00	22.00	8127.00	8103.00
	25.00	2.00	-37.00	0.00	8128.00	8103.00
	29.00	15.00	-72.00	3.00	8127.00	8103.00
	32.00	23.00	-94.00	7.00	8127.00	8103.00
	7.00	8.00	136.00	56.00	8127.00	8102.00
	-22.00	-7.00	292.00	116.00	8127.00	8102.00
	-47.00	-17.00	415.00	146.00	8127.00	8102.00
	-56.00	-24.00	184.00	163.00	8128.00	8103.00
	-66.00	-25.00	144.00	80.00	8127.00	8103.00
	-43.00	-19.00	132.00	24.00	8127.00	8103.00
	-19.00	-15.00	86.00	-11.00	8128.00	8103.00
	8.00	-9.00	36.00	-4.00	8128.00	8103.00
	17.00	-2.00	-26.00	-23.00	8128.00	8103.00
	17.00	8.00	-123.00	-50.00	8128.00	8103.00
	12.00	12.00	-161.00	-58.00	8127.00	8103.00
	8.00	6.00	-143.00	-68.00	8128.00	8103.00
	3.00	10.00	-151.00	-98.00	8128.00	8103.00
	1.00	11.00	-154.00	-112.00	8127.00	8103.00
	5.00	8.00	-115.00	-67.00	8128.00	8103.00
	10.00	8.00	-25.00	-36.00	8128.00	8103.00
	0.00	5.00	107.00	8.00	8127.00	8103.00
	-10.00	-8.00	199.00	80.00	8128.00	8104.00
	-3.00	-14.00	251.00	104.00	8128.00	8103.00
	1.00	-19.00	175.00	71.00	8128.00	8103.00
	5.00	-15.00	56.00	8.00	8126.00	8102.00
	22.00	-3.00	-81.00	-57.00	8128.00	8103.00
	25.00	5.00	-129.00	-82.00	8128.00	8103.00
	18.00	15.00	-97.00	-74.00	8127.00	8102.00
	11.00	19.00	-101.00	-45.00	8128.00	8103.00
	9.00	12.00	-69.00	14.00	8128.00	8104.00
	2.00	2.00	-48.00	61.00	8128.00	8103.00
	1.00	-8.00	-22.00	62.00	8128.00	8103.00
	0.00	-16.00	-39.00	-17.00	8129.00	8104.00
	-2.00	-3.00	-89.00	-118.00	8128.00	8103.00
	-2.00	12.00	-103.00	-143.00	8128.00	8104.00
	-3.00	11.00	-69.00	-86.00	8129.00	8104.00
	-16.00	6.00	-10.00	35.00	8128.00	8104.00
	-25.00	-3.00	-59.00	127.00	8128.00	8103.00
	-36.00	-14.00	-27.00	157.00	8128.00	8104.00
	-41.00	-32.00	67.00	110.00	8128.00	8103.00
	-34.00	-34.00	68.00	36.00	8128.00	8104.00
	-13.00	-18.00	56.00	12.00	8128.00	8104.00
	1.00	-7.00	56.00	-1.00	8129.00	8104.00
	12.00	-7.00	73.00	-15.00	8128.00	8103.00
	19.00	-5.00	69.00	-39.00	8129.00	8104.00
	31.00	7.00	3.00	-59.00	8129.00	8104.00
	44.00	14.00	-84.00	-77.00	8128.00	8103.00
	42.00	8.00	3.00	-78.00	8129.00	8103.00
	29.00	-1.00	41.00	-59.00	8129.00	8104.00
	16.00	14.00	-29.00	-15.00	8129.00	8104.00
	1.00	18.00	-79.00	44.00	8128.00	8104.00
	-12.00	9.00	114.00	107.00	8128.00	8103.00
	-29.00	3.00	171.00	99.00	8128.00	8103.00
	-32.00	7.00	122.00	59.00	8128.00	8104.00
	-21.00	7.00	29.00	-2.00	8129.00	8104.00
	1.00	3.00	-10.00	-23.00	8128.00	8103.00
	21.00	2.00	-29.00	-13.00	8129.00	8104.00
	31.00	-2.00	-101.00	-29.00	8129.00	8104.00
	31.00	-7.00	-141.00	-51.00	8130.00	8104.00
	19.00	-6.00	-189.00	-36.00	8129.00	8103.00
	10.00	-10.00	-150.00	22.00	8128.00	8103.00
	-9.00	-13.00	36.00	77.00	8128.00	8103.00
	-36.00	-14.00	141.00	86.00	8128.00	8103.00
	-52.00	-33.00	48.00	47.00	8128.00	8103.00
	-55.00	-22.00	-27.00	-28.00	8128.00	8103.00
	-37.00	-4.00	-20.00	-63.00	8129.00	8104.00
	-17.00	8.00	-51.00	-69.00	8128.00	8103.00
	-10.00	7.00	-47.00	-62.00	8129.00	8104.00
	-11.00	12.00	-44.00	-77.00	8129.00	8104.00
	-9.00	20.00	-9.00	-97.00	8128.00	8104.00
	2.00	18.00	128.00	-60.00	8128.00	8103.00
	6.00	11.00	273.00	-1.00	8128.00	8103.00
	9.00	4.00	200.00	50.00	8128.00	8104.00
	14.00	4.00	101.00	89.00	8128.00	8103.00
	13.00	-3.00	81.00	136.00	8129.00	8104.00
	6.00	-14.00	-28.00	108.00	8128.00	8104.00
	8.00	-13.00	-61.00	16.00	8128.00	8103.00
	6.00	-6.00	-89.00	-41.00	8128.00	8103.00
	19.00	1.00	-127.00	-75.00	8128.00	8103.00
	40.00	3.00	-147.00	-68.00	8129.00	8103.00
	41.00	-3.00	-215.00	-60.00	8128.00	8103.00
	23.00	-10.00	-180.00	-38.00	8128.00	8103.00
	1.00	-10.00	-21.00	-2.00	8128.00	8103.00
	-9.00	-15.00	212.00	49.00	8128.00	8103.00
	-24.00	-19.00	67.00	92.00	8128.00	8104.00
	-27.00	-9.00	32.00	57.00	8128.00	8103.00
	-30.00	-12.00	83.00	31.00	8128.00	8104.00
	-29.00	-1.00	97.00	-24.00	8129.00	8103.00
	-7.00	16.00	-88.00	-57.00	8128.00	8103.00
	23.00	21.00	-206.00	-55.00	8128.00	8103.00
	24.00	11.00	-318.00	-63.00	8128.00	8103.00
	15.00	16.00	-350.00	-129.00	8128.00	8103.00
	8.00	20.00	-372.00	-130.00	8128.00	8103.00
	-4.00	17.00	-168.00	-51.00	8128.00	8102.00
	-18.00	-15.00	70.00	99.00	8128.00	8103.00
	-31.00	-30.00	315.00	170.00	8128.00	8103.00
	-39.00	-18.00	705.00	124.00	8128.00	8104.00
	-37.00	1.00	283.00	39.00	8128.00	8103.00
	18.00	5.00	73.00	3.00	8128.00	8104.00
	65.00	7.00	80.00	0.00	8128.00	8103.00
	67.00	-1.00	54.00	1.00	8128.00	8103.00
	49.00	-7.00	148.00	-2.00	8129.00	8104.00
	35.00	-4.00	339.00	12.00	8127.00	8103.00
	6.00	-10.00	394.00	43.00	8128.00	8103.00
	-16.00	-12.00	155.00	48.00	8128.00	8103.00
	-44.00	-19.00	-10.00	54.00	8127.00	8102.00
	-65.00	-15.00	-87.00	-4.00	8128.00	8103.00
	-55.00	-17.00	-123.00	-4.00	8128.00	8102.00
	-41.00	-7.00	-171.00	9.00	8127.00	8103.00
	-36.00	-7.00	-168.00	7.00	8128.00	8103.00
	-37.00	-6.00	-116.00	-23.00	8128.00	8103.00
	-20.00	2.00	-149.00	-32.00	8128.00	8103.00
	-3.00	-2.00	-205.00	-21.00	8128.00	8103.00
	5.00	-3.00	-309.00	-28.00	8128.00	8102.00
	12.00	3.00	-344.00	-41.00	8128.00	8103.00
	15.00	8.00	-293.00	-76.00	8128.00	8102.00
	29.00	16.00	-214.00	-86.00	8128.00	8103.00
	32.00	21.00	-121.00	-73.00	8128.00	8103.00
	21.00	8.00	57.00	-25.00	8128.00	8103.00
	3.00	1.00	286.00	19.00	8127.00	8103.00
	-10.00	-3.00	312.00	72.00	8128.00	8103.00
	-19.00	-18.00	144.00	67.00	8128.00	8103.00
	-30.00	-22.00	80.00	37.00	8127.00	8103.00
	-23.00	-8.00	45.00	8.00	8128.00	8104.00
	-3.00	2.00	20.00	-1.00	8128.00	8103.00
	20.00	7.00	7.00	-5.00	8128.00	8103.00
	28.00	10.00	-4.00	-18.00	8128.00	8103.00
	27.00	11.00	18.00	-23.00	8129.00	8103.00
	15.00	12.00	73.00	-23.00	8128.00	8103.00
	15.00	15.00	143.00	-35.00	8128.00	8103.00
	18.00	19.00	106.00	-37.00	8128.00	8103.00
	15.00	12.00	77.00	-7.00	8129.00	8103.00
	8.00	-7.00	113.00	5.00	8128.00	8103.00
	0.00	-11.00	112.00	-30.00	8129.00	8103.00
	3.00	-8.00	-16.00	-52.00	8128.00	8103.00
	6.00	1.00	-86.00	-100.00	8129.00	8103.00
	18.00	9.00	-185.00	-117.00	8128.00	8103.00
	14.00	8.00	-323.00	-88.00	8128.00	8103.00
	-3.00	2.00	-259.00	-47.00	8128.00	8103.00
	-9.00	-11.00	-141.00	54.00	8127.00	8103.00
	-8.00	-11.00	31.00	121.00	8128.00	8103.00
	-15.00	-22.00	134.00	192.00	8128.00	8103.00
	-32.00	-45.00	36.00	217.00	8129.00	8104.00
	-40.00	-44.00	-18.00	151.00	8128.00	8102.00
	-41.00	-33.00	-33.00	105.00	8128.00	8103.00
	-27.00	-15.00	-42.00	65.00	8128.00	8102.00
	-19.00	-10.00	-47.00	13.00	8128.00	8103.00
	-9.00	7.00	-32.00	-26.00	8127.00	8102.00
	3.00	16.00	9.00	-56.00	8128.00	8103.00
	14.00	22.00	26.00	-76.00	8128.00	8103.00
	36.00	29.00	-8.00	-94.00	8128.00	8103.00
	52.00	37.00	26.00	-115.00	8128.00	8103.00
	66.00	38.00	28.00	-103.00	8128.00	8104.00
	62.00	32.00	-7.00	-68.00	8128.00	8103.00
	41.00	17.00	-10.00	-2.00	8128.00	8103.00
	20.00	9.00	90.00	36.00	8127.00	8102.00
	-11.00	-7.00	209.00	65.00	8127.00	8103.00
	-38.00	-24.00	109.00	90.00	8127.00	8103.00
	-52.00	-35.00	66.00	66.00	8128.00	8104.00
	-54.00	-36.00	134.00	6.00	8127.00	8102.00
	-41.00	-31.00	148.00	-30.00	8128.00	8103.00
	-35.00	-24.00	50.00	-40.00	8128.00	8103.00
	-12.00	-13.00	-7.00	-64.00	8128.00	8103.00
	8.00	1.00	-59.00	-106.00	8128.00	8102.00
	24.00	3.00	-104.00	-53.00	8128.00	8103.00
	29.00	5.00	-98.00	-9.00	8128.00	8102.00
	20.00	4.00	-137.00	21.00	8126.00	8102.00
	18.00	6.00	-86.00	84.00	8128.00	8104.00
	4.00	-3.00	111.00	137.00	8128.00	8104.00
	-20.00	-15.00	69.00	96.00	8128.00	8103.00
	-27.00	-5.00	-25.00	16.00	8128.00	8104.00
	-41.00	4.00	-87.00	-30.00	8128.00	8103.00
	-41.00	6.00	-86.00	-30.00	8128.00	8103.00
	-38.00	4.00	-30.00	-48.00	8128.00	8103.00
	-37.00	1.00	48.00	-40.00	8128.00	8102.00
	-29.00	-4.00	123.00	-34.00	8128.00	8103.00
	-13.00	4.00	158.00	-51.00	8128.00	8103.00
	2.00	5.00	92.00	-68.00	8128.00	8103.00
	19.00	2.00	-7.00	-62.00	8128.00	8103.00
	30.00	2.00	-71.00	-70.00	8129.00	8104.00
	35.00	5.00	-107.00	-64.00	8129.00	8104.00
	42.00	8.00	-160.00	-46.00	8128.00	8103.00
	39.00	-4.00	-106.00	-12.00	8128.00	8103.00
	24.00	-5.00	-35.00	17.00	8128.00	8103.00
	15.00	-1.00	18.00	-15.00	8129.00	8104.00
	-5.00	-9.00	-13.00	50.00	8128.00	8103.00
	-10.00	-13.00	-82.00	97.00	8129.00	8104.00
	-17.00	-15.00	-182.00	96.00	8128.00	8103.00
	-15.00	-19.00	-207.00	52.00	8128.00	8103.00
	-6.00	-17.00	-45.00	-30.00	8128.00	8103.00
	23.00	12.00	-107.00	-81.00	8129.00	8104.00
	45.00	28.00	-160.00	-140.00	8128.00	8103.00
	44.00	23.00	89.00	-124.00	8128.00	8103.00
	24.00	12.00	253.00	-4.00	8129.00	8103.00
	-3.00	16.00	182.00	115.00	8128.00	8103.00
	-18.00	-2.00	128.00	198.00	8128.00	8103.00
	-29.00	-27.00	86.00	208.00	8129.00	8103.00
	-51.00	-34.00	29.00	140.00	8128.00	8104.00
	-62.00	-29.00	10.00	57.00	8128.00	8103.00
	-57.00	-21.00	12.00	3.00	8128.00	8103.00
	-33.00	-14.00	-10.00	-6.00	8129.00	8103.00
	-9.00	-7.00	-18.00	-26.00	8129.00	8103.00
	15.00	-1.00	-3.00	-43.00	8129.00	8103.00
	29.00	3.00	-14.00	-62.00	8129.00	8104.00
	34.00	12.00	-47.00	-92.00	8128.00	8103.00
	29.00	15.00	-5.00	-89.00	8128.00	8103.00
	24.00	10.00	127.00	-43.00	8128.00	8103.00
	16.00	14.00	113.00	26.00	8129.00	8104.00
	5.00	16.00	47.00	65.00	8129.00	8104.00
	-10.00	11.00	36.00	61.00	8128.00	8103.00
	-19.00	9.00	9.00	34.00	8127.00	8103.00
	-15.00	15.00	-35.00	-11.00	8128.00	8103.00
	-7.00	16.00	-67.00	-54.00	8128.00	8103.00
	8.00	13.00	-24.00	-68.00	8128.00	8103.00
	12.00	4.00	64.00	-76.00	8129.00	8103.00
	3.00	-12.00	155.00	-65.00	8128.00	8103.00
	1.00	-21.00	191.00	-7.00	8128.00	8103.00
	5.00	-23.00	23.00	49.00	8127.00	8103.00
	5.00	-33.00	5.00	92.00	8128.00	8103.00
	4.00	-31.00	-64.00	46.00	8128.00	8103.00
	16.00	-17.00	-196.00	-66.00	8128.00	8103.00
	19.00	0.00	-150.00	-112.00	8127.00	8102.00
	23.00	6.00	-11.00	-56.00	8128.00	8103.00
	11.00	1.00	121.00	-1.00	8128.00	8103.00
	-14.00	-6.00	221.00	38.00	8128.00	8104.00
	-41.00	-9.00	160.00	86.00	8127.00	8102.00
	-57.00	-19.00	83.00	93.00	8128.00	8103.00
	-49.00	-15.00	-9.00	13.00	8128.00	8103.00
	-30.00	-1.00	-10.00	-37.00	8128.00	8103.00
	1.00	18.00	-92.00	-45.00	8129.00	8104.00
	22.00	25.00	-198.00	-44.00	8128.00	8103.00
	26.00	35.00	-209.00	-76.00	8128.00	8102.00
	11.00	20.00	-151.00	-40.00	8128.00	8102.00
	11.00	14.00	-15.00	-2.00	8128.00	8103.00
	1.00	10.00	-126.00	45.00	8128.00	8103.00
	-5.00	1.00	-159.00	60.00	8128.00	8103.00
	-13.00	-15.00	-170.00	43.00	8128.00	8103.00
	0.00	-3.00	-125.00	-47.00	8128.00	8102.00
	34.00	7.00	21.00	-77.00	8129.00	8103.00
	41.00	-6.00	32.00	-69.00	8129.00	8103.00
	39.00	-22.00	42.00	-9.00	8128.00	8102.00
	34.00	-17.00	96.00	39.00	8128.00	8103.00
	18.00	-6.00	139.00	56.00	8127.00	8102.00
	-13.00	-31.00	45.00	139.00	8127.00	8102.00
	-52.00	-43.00	37.00	121.00	8129.00	8104.00
	-77.00	-26.00	30.00	41.00	8127.00	8103.00
	-79.00	-11.00	76.00	-14.00	8128.00	8103.00
	-49.00	1.00	43.00	0.00	8128.00	8103.00
	-34.00	2.00	-56.00	10.00	8127.00	8103.00
	-23.00	7.00	-98.00	-17.00	8128.00	8103.00
	0.00	15.00	-105.00	-40.00	8127.00	8102.00
	13.00	21.00	-83.00	-69.00	8128.00	8102.00
	23.00	28.00	-82.00	-77.00	8128.00	8102.00
	32.00	21.00	22.00	-70.00	8127.00	8102.00
	44.00	23.00	95.00	-58.00	8128.00	8103.00
	44.00	25.00	7.00	-20.00	8128.00	8103.00
	38.00	11.00	46.00	39.00	8127.00	8103.00
	23.00	2.00	109.00	45.00	8127.00	8103.00
	2.00	-9.00	143.00	35.00	8127.00	8102.00
	-11.00	-6.00	69.00	29.00	8128.00	8103.00
	-15.00	-24.00	63.00	77.00	8128.00	8103.00
	-28.00	-33.00	60.00	55.00	8127.00	8102.00
	-34.00	-22.00	-76.00	-6.00	8128.00	8103.00
	-18.00	-9.00	-137.00	-37.00	8128.00	8103.00
	5.00	-1.00	-193.00	-50.00	8128.00	8103.00
	24.00	8.00	-250.00	-64.00	8128.00	8103.00
	43.00	16.00	-170.00	-52.00	8128.00	8104.00
	41.00	8.00	-10.00	-40.00	8128.00	8103.00
	29.00	-4.00	166.00	-39.00	8127.00	8102.00
	19.00	-6.00	294.00	-34.00	8128.00	8103.00
	-2.00	-8.00	267.00	-1.00	8128.00	8103.00
	-18.00	1.00	180.00	27.00	8127.00	8103.00
	-23.00	-1.00	-18.00	88.00	8127.00	8102.00
	-25.00	-5.00	-48.00	62.00	8127.00	8102.00
	-31.00	-15.00	-21.00	38.00	8128.00	8104.00
	-34.00	-15.00	10.00	1.00	8127.00	8103.00
	-25.00	-17.00	59.00	-23.00	8127.00	8102.00
	-10.00	-13.00	-14.00	-29.00	8129.00	8104.00
	6.00	4.00	-27.00	-50.00	8128.00	8103.00
	13.00	8.00	3.00	-36.00	8128.00	8103.00
	12.00	4.00	-87.00	-62.00	8127.00	8102.00
	13.00	8.00	-76.00	-64.00	8128.00	8103.00
	12.00	20.00	-34.00	-85.00	8128.00	8103.00
	9.00	18.00	-31.00	-92.00	8128.00	8103.00
	2.00	9.00	42.00	-45.00	8128.00	8103.00
	-8.00	8.00	175.00	18.00	8128.00	8104.00
	1.00	8.00	215.00	124.00	8128.00	8104.00
	5.00	6.00	177.00	149.00	8128.00	8102.00
	0.00	-20.00	99.00	139.00	8128.00	8103.00
	-9.00	-39.00	28.00	100.00	8128.00	8103.00
	-11.00	-25.00	-52.00	40.00	8128.00	8103.00
	7.00	-9.00	-38.00	-22.00	8129.00	8103.00
	38.00	8.00	-142.00	-51.00	8128.00	8103.00
	44.00	18.00	-130.00	-100.00	8128.00	8104.00
	31.00	24.00	-144.00	-142.00	8129.00	8104.00
	13.00	13.00	-142.00	-67.00	8128.00	8103.00
	-12.00	3.00	-132.00	47.00	8128.00	8104.00
	-22.00	-23.00	-172.00	153.00	8129.00	8104.00
	-53.00	-56.00	-141.00	146.00	8128.00	8103.00
	-54.00	-44.00	-37.00	32.00	8128.00	8104.00
	-38.00	-35.00	43.00	-49.00	8129.00	8103.00
	-21.00	-17.00	80.00	-53.00	8128.00	8103.00
	-13.00	-9.00	96.00	-11.00	8129.00	8104.00
	-10.00	-2.00	59.00	7.00	8128.00	8104.00
	4.00	-1.00	-8.00	46.00	8127.00	8103.00
	0.00	-5.00	-54.00	70.00	8128.00	8104.00
	-12.00	-6.00	-61.00	42.00	8128.00	8103.00
	-24.00	0.00	-32.00	13.00	8128.00	8104.00
	-28.00	-1.00	-23.00	21.00	8128.00	8104.00
	-20.00	7.00	42.00	1.00	8128.00	8103.00
	-6.00	7.00	27.00	-22.00	8128.00	8103.00
	18.00	16.00	-89.00	-58.00	8129.00	8103.00
	23.00	13.00	-77.00	-69.00	8129.00	8104.00
	23.00	16.00	-38.00	-54.00	8128.00	8103.00
	24.00	14.00	17.00	-14.00	8129.00	8104.00
	20.00	14.00	78.00	31.00	8127.00	8103.00
	16.00	19.00	125.00	-7.00	8128.00	8103.00
	20.00	20.00	103.00	-23.00	8129.00	8103.00
	19.00	16.00	11.00	-57.00	8128.00	8103.00
	18.00	13.00	-40.00	-70.00	8129.00	8104.00
	21.00	17.00	-39.00	-105.00	8128.00	8103.00
	15.00	-3.00	28.00	-65.00	8129.00	8104.00
	6.00	-19.00	44.00	2.00	8128.00	8103.00
	-8.00	-20.00	75.00	-3.00	8129.00	8104.00
	-12.00	-21.00	113.00	-3.00	8128.00	8103.00
	-22.00	-31.00	171.00	26.00	8128.00	8103.00
	-22.00	-22.00	134.00	62.00	8129.00	8104.00
	-29.00	-16.00	166.00	77.00	8128.00	8103.00
	-30.00	-7.00	-5.00	88.00	8128.00	8104.00
	-32.00	5.00	-92.00	85.00	8128.00	8103.00
	-24.00	11.00	-120.00	26.00	8128.00	8103.00
	-19.00	6.00	-141.00	5.00	8127.00	8103.00
	-14.00	0.00	-158.00	-4.00	8129.00	8104.00
	-9.00	2.00	-93.00	-10.00	8129.00	8103.00
	0.00	4.00	18.00	-13.00	8129.00	8103.00
	7.00	3.00	87.00	-15.00	8128.00	8103.00
	11.00	1.00	143.00	-12.00	8129.00	8104.00
	12.00	-6.00	133.00	-6.00	8129.00	8104.00
	14.00	-4.00	10.00	-22.00	8128.00	8103.00
	15.00	4.00	-85.00	-32.00	8129.00	8103.00
	14.00	3.00	-115.00	-33.00	8128.00	8103.00
	15.00	0.00	-135.00	-28.00	8129.00	8103.00
	16.00	2.00	-129.00	-35.00	8129.00	8104.00
	29.00	3.00	-137.00	-45.00	8128.00	8103.00
	33.00	4.00	-142.00	-62.00	8128.00	8103.00
	38.00	8.00	-182.00	-57.00	8127.00	8103.00
	44.00	18.00	-213.00	-106.00	8128.00	8103.00
	53.00	24.00	-214.00	-122.00	8128.00	8104.00
	46.00	24.00	-144.00	-73.00	8129.00	8104.00
	22.00	17.00	-17.00	-28.00	8129.00	8104.00
	3.00	6.00	139.00	9.00	8128.00	8104.00
	-28.00	-19.00	401.00	107.00	8128.00	8103.00
	-58.00	-30.00	536.00	208.00	8128.00	8103.00
	-80.00	-29.00	359.00	209.00	8128.00	8103.00
	-73.00	-34.00	205.00	109.00	8128.00	8103.00
	-49.00	-21.00	114.00	6.00	8128.00	8103.00
	-28.00	-17.00	16.00	-11.00	8128.00	8103.00
	-15.00	-5.00	-54.00	-16.00	8128.00	8103.00
	0.00	-2.00	-104.00	2.00	8128.00	8103.00
	9.00	-8.00	-125.00	4.00	8128.00	8103.00
	12.00	-13.00	-166.00	-8.00	8128.00	8103.00
	-2.00	-18.00	-88.00	28.00	8128.00	8103.00
	-11.00	-7.00	-64.00	71.00	8128.00	8104.00
	2.00	1.00	-57.00	72.00	8127.00	8102.00
	8.00	7.00	-39.00	14.00	8128.00	8103.00
	4.00	5.00	-37.00	-20.00	8128.00	8102.00
	7.00	10.00	-82.00	-43.00	8128.00	8103.00
	22.00	20.00	-47.00	-78.00	8128.00	8103.00
	42.00	32.00	-18.00	-138.00	8128.00	8103.00
	63.00	39.00	-53.00	-199.00	8128.00	8104.00
	66.00	42.00	-206.00	-222.00	8128.00	8103.00
	45.00	34.00	-146.00	-149.00	8129.00	8103.00
	14.00	5.00	234.00	29.00	8127.00	8102.00
	-21.00	-18.00	282.00	176.00	8127.00	8102.00
	-51.00	-35.00	17.00	269.00	8128.00	8103.00
	-73.00	-45.00	6.00	239.00	8128.00	8103.00
	-92.00	-66.00	51.00	152.00	8128.00	8103.00
	-91.00	-54.00	79.00	28.00	8127.00	8102.00
	-69.00	-38.00	34.00	-16.00	8128.00	8103.00
	-32.00	-26.00	-12.00	-21.00	8128.00	8102.00
	-4.00	-19.00	-10.00	-11.00	8127.00	8103.00
	10.00	-14.00	19.00	-19.00	8128.00	8103.00
	21.00	-7.00	30.00	-66.00	8128.00	8103.00
	23.00	-2.00	82.00	-70.00	8128.00	8103.00
	20.00	-3.00	65.00	-29.00	8129.00	8103.00
	18.00	6.00	9.00	-15.00	8128.00	8102.00
	15.00	16.00	-50.00	-8.00	8129.00	8103.00
	9.00	12.00	-94.00	9.00	8127.00	8103.00
	16.00	23.00	-152.00	-25.00	8128.00	8102.00
	23.00	29.00	-156.00	-63.00	8128.00	8102.00
	31.00	32.00	-105.00	-87.00	8128.00	8103.00
	33.00	33.00	-106.00	-91.00	8128.00	8103.00
	28.00	30.00	-137.00	-60.00	8128.00	8102.00
	19.00	13.00	-127.00	11.00	8128.00	8103.00
	12.00	11.00	21.00	59.00	8127.00	8103.00
	2.00	-5.00	83.00	32.00	8128.00	8104.00
	-13.00	-16.00	130.00	-12.00	8128.00	8103.00
	-14.00	-13.00	252.00	-11.00	8128.00	8103.00
	-15.00	-16.00	299.00	8.00	8127.00	8102.00
	-19.00	-8.00	260.00	5.00	8127.00	8103.00
	-29.00	-19.00	216.00	51.00	8128.00	8103.00
	-34.00	-20.00	34.00	14.00	8128.00	8103.00
	-18.00	-14.00	-40.00	-19.00	8129.00	8103.00
	-5.00	-5.00	-78.00	-36.00	8128.00	8103.00
	8.00	0.00	-152.00	-34.00	8128.00	8102.00
	17.00	0.00	-110.00	-17.00	8128.00	8103.00
	14.00	3.00	-83.00	-10.00	8128.00	8103.00
	2.00	10.00	-50.00	16.00	8126.00	8102.00
	-6.00	4.00	-55.00	20.00	8128.00	8103.00
	-14.00	0.00	-17.00	15.00	8128.00	8104.00
	-27.00	3.00	-31.00	52.00	8128.00	8103.00
	-24.00	9.00	-65.00	44.00	8127.00	8102.00
	-15.00	9.00	-8.00	63.00	8127.00	8102.00
	-6.00	9.00	-15.00	79.00	8128.00	8103.00
	10.00	4.00	12.00	47.00	8127.00	8103.00
	22.00	1.00	5.00	-19.00	8128.00	8103.00
	33.00	0.00	-40.00	-56.00	8127.00	8102.00
	38.00	-2.00	-45.00	-79.00	8127.00	8102.00
	46.00	-1.00	8.00	-79.00	8128.00	8102.00
	37.00	-3.00	-19.00	-44.00	8128.00	8102.00
	26.00	-2.00	-30.00	5.00	8127.00	8103.00
	32.00	-9.00	-17.00	70.00	8127.00	8102.00
	26.00	-10.00	111.00	71.00	8128.00	8103.00
	-3.00	-13.00	207.00	30.00	8128.00	8103.00
	-23.00	-13.00	-110.00	9.00	8127.00	8102.00
	-32.00	-11.00	-170.00	-12.00	8128.00	8103.00
	-34.00	1.00	-71.00	4.00	8127.00	8103.00
	-41.00	-5.00	3.00	21.00	8128.00	8103.00
	-50.00	-19.00	39.00	26.00	8127.00	8102.00
	-50.00	-10.00	107.00	-24.00	8128.00	8103.00
	-25.00	1.00	11.00	-30.00	8128.00	8103.00
	-5.00	7.00	-49.00	-55.00	8128.00	8104.00
	3.00	13.00	-44.00	-83.00	8128.00	8103.00
	1.00	10.00	-70.00	-94.00	8127.00	8103.00
	11.00	13.00	-3.00	-93.00	8128.00	8104.00
	23.00	8.00	-2.00	-83.00	8128.00	8103.00
	20.00	4.00	-74.00	-34.00	8128.00	8103.00
	6.00	-2.00	-16.00	39.00	8128.00	8104.00
	-10.00	-9.00	50.00	75.00	8128.00	8103.00
	-15.00	-21.00	136.00	82.00	8127.00	8103.00
	-18.00	-23.00	24.00	77.00	8128.00	8103.00
	-21.00	-27.00	8.00	28.00	8128.00	8103.00
	-29.00	-25.00	25.00	-2.00	8129.00	8104.00
	-11.00	-16.00	-8.00	3.00	8128.00	8103.00
	0.00	-4.00	-23.00	7.00	8128.00	8103.00
	15.00	7.00	-9.00	-3.00	8130.00	8104.00
	36.00	9.00	11.00	-25.00	8128.00	8103.00
	43.00	17.00	6.00	-59.00	8129.00	8104.00
	41.00	26.00	-22.00	-66.00	8129.00	8104.00
	27.00	26.00	14.00	-21.00	8128.00	8103.00
	6.00	12.00	-30.00	17.00	8128.00	8104.00
	-7.00	5.00	-93.00	44.00	8128.00	8103.00
	-30.00	-1.00	-23.00	23.00	8127.00	8103.00
	-36.00	-5.00	101.00	-17.00	8129.00	8104.00
	-36.00	-6.00	160.00	-14.00	8129.00	8103.00
	-22.00	-4.00	175.00	34.00	8128.00	8104.00
	-8.00	5.00	51.00	9.00	8127.00	8103.00
	-5.00	-1.00	55.00	8.00	8127.00	8103.00
	2.00	-18.00	82.00	26.00	8128.00	8104.00
	5.00	-26.00	-35.00	67.00	8128.00	8104.00
	-3.00	-20.00	-73.00	72.00	8129.00	8104.00
	3.00	-11.00	-65.00	20.00	8127.00	8102.00
	6.00	-9.00	-115.00	-40.00	8128.00	8103.00
	9.00	-6.00	-128.00	-63.00	8128.00	8103.00
	6.00	-3.00	-32.00	-39.00	8128.00	8104.00
	13.00	-8.00	-9.00	41.00	8127.00	8103.00
	11.00	-2.00	-51.00	73.00	8128.00	8103.00
	8.00	-1.00	-98.00	70.00	8128.00	8103.00
	0.00	5.00	-97.00	24.00	8128.00	8104.00
	-8.00	12.00	-27.00	-17.00	8129.00	8104.00
	-7.00	16.00	81.00	-30.00	8128.00	8102.00
	7.00	14.00	140.00	-14.00	8129.00	8104.00
	10.00	9.00	89.00	-15.00	8129.00	8104.00
	8.00	7.00	-38.00	-45.00	8129.00	8104.00
	12.00	9.00	-140.00	-56.00	8128.00	8103.00
	19.00	13.00	-179.00	-33.00	8128.00	8103.00
	28.00	9.00	-189.00	20.00	8127.00	8103.00
	22.00	-2.00	-2.00	52.00	8127.00	8102.00
	5.00	0.00	200.00	25.00	8128.00	8103.00
	-12.00	-12.00	265.00	5.00	8127.00	8103.00
	-20.00	-9.00	247.00	-26.00	8128.00	8103.00
	-23.00	-10.00	146.00	-18.00	8129.00	8103.00
	-27.00	-26.00	-16.00	-14.00	8129.00	8103.00
	-32.00	-24.00	-149.00	-59.00	8128.00	8103.00
	-16.00	-8.00	-143.00	-70.00	8128.00	8103.00
	-4.00	-2.00	-96.00	-29.00	8128.00	8103.00
	17.00	4.00	-45.00	17.00	8128.00	8104.00
	10.00	-1.00	26.00	42.00	8127.00	8103.00
	0.00	4.00	123.00	17.00	8127.00	8103.00
	-10.00	3.00	120.00	-29.00	8128.00	8103.00
	-12.00	-2.00	28.00	-67.00	8128.00	8103.00
	-2.00	-1.00	-58.00	-45.00	8129.00	8103.00
	-3.00	13.00	-130.00	-103.00	8128.00	8103.00
	-11.00	18.00	-193.00	-66.00	8128.00	8103.00
	-5.00	18.00	-215.00	14.00	8128.00	8104.00
	1.00	5.00	-228.00	77.00	8127.00	8103.00
	-10.00	1.00	-167.00	75.00	8128.00	8103.00
	-23.00	-14.00	-83.00	23.00	8127.00	8103.00
	-27.00	-29.00	30.00	-24.00	8128.00	8103.00
	-30.00	-29.00	166.00	-1.00	8128.00	8103.00
	-16.00	-18.00	146.00	63.00	8127.00	8102.00
	-5.00	-17.00	192.00	75.00	8127.00	8103.00
	5.00	-12.00	246.00	73.00	8128.00	8104.00
	18.00	0.00	288.00	2.00	8127.00	8102.00
	24.00	12.00	123.00	-45.00	8127.00	8102.00
	28.00	21.00	-10.00	-76.00	8128.00	8103.00
	27.00	21.00	-76.00	-58.00	8128.00	8103.00
	16.00	9.00	-53.00	16.00	8128.00	8103.00
	5.00	4.00	-40.00	39.00	8127.00	8103.00
	1.00	-9.00	3.00	57.00	8127.00	8103.00
	3.00	1.00	81.00	2.00	8127.00	8102.00
	11.00	10.00	15.00	-36.00	8128.00	8103.00
	8.00	15.00	-3.00	-31.00	8128.00	8103.00
	18.00	12.00	-30.00	-7.00	8128.00	8103.00
	20.00	2.00	-30.00	55.00	8128.00	8103.00
	24.00	-10.00	-39.00	64.00	8127.00	8103.00
	15.00	-13.00	-97.00	11.00	8128.00	8103.00
	-4.00	-7.00	-39.00	-81.00	8127.00	8102.00
	-13.00	-6.00	48.00	-77.00	8128.00	8103.00
	-25.00	0.00	50.00	8.00	8127.00	8103.00
	-27.00	-2.00	78.00	93.00	8127.00	8102.00
	-29.00	-9.00	-20.00	117.00	8128.00	8103.00
	-18.00	-14.00	-75.00	53.00	8128.00	8103.00
	-5.00	-21.00	-92.00	3.00	8128.00	8103.00
	-6.00	-27.00	-101.00	-21.00	8128.00	8103.00
	2.00	-20.00	-83.00	-22.00	8128.00	8103.00
	3.00	-5.00	-7.00	-10.00	8128.00	8103.00
	-4.00	-6.00	27.00	2.00	8128.00	8103.00
	-7.00	1.00	-43.00	-22.00	8129.00	8104.00
	2.00	1.00	-44.00	-11.00	8128.00	8103.00
	-3.00	6.00	-20.00	-48.00	8128.00	8103.00
	3.00	10.00	50.00	-44.00	8128.00	8103.00
	11.00	23.00	247.00	-31.00	8128.00	8103.00
	12.00	20.00	187.00	1.00	8127.00	8103.00
	5.00	11.00	195.00	38.00	8128.00	8103.00
	-3.00	-3.00	88.00	18.00	8128.00	8103.00
	-14.00	-9.00	-66.00	-37.00	8128.00	8103.00
	-25.00	-21.00	-159.00	-53.00	8128.00	8103.00
	-22.00	-26.00	-169.00	-22.00	8129.00	8103.00
	-11.00	-22.00	-168.00	-38.00	8128.00	8103.00
	4.00	-15.00	-216.00	-55.00	8128.00	8104.00
	6.00	-12.00	-138.00	-29.00	8129.00	8103.00
	-9.00	-2.00	68.00	45.00	8128.00	8104.00
	-26.00	-4.00	165.00	100.00	8128.00	8104.00
	-21.00	1.00	98.00	78.00	8128.00	8103.00
	-15.00	4.00	73.00	28.00	8128.00	8104.00
	2.00	16.00	48.00	-21.00	8129.00	8103.00
	23.00	21.00	44.00	-68.00	8128.00	8103.00
	36.00	24.00	15.00	-117.00	8129.00	8104.00
	38.00	20.00	-63.00	-105.00	8129.00	8104.00
	30.00	13.00	-83.00	-58.00	8128.00	8103.00
	20.00	9.00	-66.00	-21.00	8128.00	8103.00
	10.00	10.00	-17.00	32.00	8127.00	8103.00
	-7.00	-4.00	36.00	67.00	8128.00	8104.00
	-10.00	2.00	24.00	61.00	8129.00	8104.00
	0.00	3.00	75.00	84.00	8128.00	8104.00
	8.00	-2.00	113.00	96.00	8128.00	8104.00
	11.00	-18.00	-17.00	86.00	8127.00	8103.00
	4.00	-16.00	-18.00	-22.00	8128.00	8104.00
	-6.00	-6.00	-111.00	-117.00	8128.00	8103.00
	-8.00	-7.00	-224.00	-136.00	8128.00	8104.00
	9.00	-15.00	-179.00	-56.00	8129.00	8103.00
	17.00	-12.00	-134.00	27.00	8127.00	8103.00
	8.00	-9.00	-114.00	95.00	8129.00	8104.00
	-9.00	-16.00	-23.00	117.00	8129.00	8104.00
	-35.00	-22.00	223.00	84.00	8128.00	8104.00
	-56.00	-12.00	239.00	40.00	8128.00	8103.00
	-50.00	-3.00	46.00	50.00	8128.00	8104.00
	-45.00	-8.00	47.00	55.00	8128.00	8104.00
	-46.00	-6.00	21.00	5.00	8128.00	8103.00
	-34.00	1.00	24.00	-39.00	8128.00	8103.00
	-17.00	10.00	32.00	-51.00	8128.00	8103.00
	10.00	13.00	52.00	-37.00	8129.00	8103.00
	27.00	16.00	27.00	-44.00	8129.00	8104.00
	47.00	22.00	-43.00	-55.00	8129.00	8104.00
	45.00	19.00	-107.00	-61.00	8129.00	8104.00
	32.00	13.00	-105.00	-59.00	8128.00	8103.00
	19.00	6.00	-61.00	-43.00	8129.00	8104.00
	9.00	-13.00	-44.00	-1.00	8129.00	8103.00
	0.00	-19.00	120.00	29.00	8128.00	8104.00
	-14.00	-24.00	216.00	26.00	8128.00	8103.00
	-22.00	-27.00	184.00	3.00	8128.00	8103.00
	-20.00	-19.00	154.00	-5.00	8129.00	8104.00
	2.00	-10.00	58.00	-2.00	8129.00	8103.00
	12.00	0.00	-16.00	0.00	8129.00	8103.00
	21.00	9.00	-70.00	-12.00	8128.00	8103.00
	28.00	15.00	-148.00	-46.00	8128.00	8103.00
	33.00	20.00	-125.00	-68.00	8128.00	8103.00
	32.00	19.00	-117.00	-79.00	8129.00	8104.00
	21.00	10.00	-70.00	-79.00	8128.00	8103.00
	3.00	4.00	-26.00	-56.00	8128.00	8103.00
	-27.00	3.00	72.00	-1.00	8129.00	8104.00
	-39.00	-2.00	95.00	55.00	8128.00	8103.00
	-41.00	1.00	115.00	53.00	8128.00	8103.00
	-29.00	-5.00	88.00	82.00	8128.00	8103.00
	-21.00	-11.00	-42.00	85.00	8128.00	8104.00
	-6.00	-4.00	-58.00	12.00	8128.00	8103.00
	12.00	5.00	-122.00	-78.00	8129.00	8104.00
	31.00	19.00	-185.00	-121.00	8129.00	8104.00
	48.00	15.00	-225.00	-97.00	8128.00	8103.00
	48.00	8.00	-112.00	-74.00	8128.00	8103.00
	27.00	-8.00	95.00	26.00	8128.00	8103.00
	5.00	-33.00	96.00	126.00	8128.00	8103.00
	-14.00	-26.00	-9.00	180.00	8128.00	8103.00
	-38.00	-32.00	55.00	187.00	8128.00	8103.00
	-48.00	-22.00	17.00	114.00	8127.00	8103.00
	-48.00	-9.00	-33.00	-3.00	8129.00	8103.00
	-29.00	-4.00	6.00	-49.00	8128.00	8103.00
	-4.00	13.00	149.00	-77.00	8129.00	8103.00
	13.00	22.00	128.00	-78.00	8128.00	8103.00
	13.00	21.00	93.00	-36.00	8128.00	8103.00
	-5.00	10.00	92.00	14.00	8128.00	8104.00
	-13.00	8.00	61.00	63.00	8128.00	8103.00
	-15.00	8.00	74.00	89.00	8128.00	8103.00
	-8.00	-10.00	102.00	148.00	8129.00	8104.00
	1.00	-17.00	-5.00	141.00	8129.00	8104.00
	8.00	-11.00	-103.00	50.00	8128.00	8103.00
	15.00	-9.00	-74.00	-18.00	8129.00	8103.00
	17.00	-13.00	-73.00	-29.00	8129.00	8104.00
	14.00	-10.00	-84.00	-61.00	8129.00	8103.00
	5.00	-9.00	-106.00	-93.00	8129.00	8103.00
	-5.00	-13.00	-83.00	-78.00	8129.00	8104.00
	-23.00	-21.00	-35.00	-51.00	8129.00	8103.00
	-17.00	-16.00	-11.00	-37.00	8129.00	8103.00
	-2.00	-5.00	-110.00	-18.00	8129.00	8103.00
	7.00	2.00	-124.00	-28.00	8128.00	8103.00
	4.00	4.00	-100.00	-38.00	8129.00	8104.00
	3.00	7.00	-94.00	-62.00	8128.00	8103.00
	-3.00	20.00	34.00	-61.00	8129.00	8104.00
	-7.00	17.00	263.00	-30.00	8128.00	8103.00
	-10.00	17.00	160.00	-18.00	8129.00	8104.00
	-12.00	6.00	67.00	-11.00	8129.00	8104.00
	-7.00	7.00	63.00	16.00	8127.00	8103.00
	-10.00	4.00	28.00	26.00	8127.00	8103.00
	-2.00	7.00	-61.00	37.00	8128.00	8103.00
	9.00	1.00	-103.00	-6.00	8128.00	8103.00
	20.00	-1.00	-100.00	-30.00	8128.00	8103.00
	23.00	2.00	-172.00	-53.00	8128.00	8103.00
	20.00	1.00	-146.00	-86.00	8128.00	8103.00
	6.00	-11.00	103.00	-74.00	8129.00	8104.00
	-9.00	-22.00	207.00	-10.00	8129.00	8103.00
	-8.00	0.00	185.00	12.00	8128.00	8103.00
	-5.00	-1.00	113.00	62.00	8128.00	8104.00
	-5.00	-10.00	101.00	130.00	8129.00	8104.00
	-10.00	-25.00	53.00	112.00	8128.00	8104.00
	-17.00	-16.00	50.00	47.00	8127.00	8102.00
	-16.00	-5.00	79.00	9.00	8128.00	8103.00
	-5.00	9.00	123.00	-14.00	8129.00	8103.00
	12.00	18.00	131.00	-33.00	8129.00	8104.00
	30.00	22.00	-14.00	-61.00	8128.00	8103.00
	52.00	34.00	-152.00	-117.00	8128.00	8103.00
	67.00	41.00	-271.00	-161.00	8128.00	8103.00
	88.00	42.00	-430.00	-177.00	8127.00	8103.00
	101.00	31.00	-484.00	-191.00	8127.00	8103.00
	76.00	21.00	-215.00	-170.00	8128.00	8103.00
	31.00	5.00	267.00	-87.00	8128.00	8103.00
	-25.00	-12.00	352.00	70.00	8127.00	8103.00
	-81.00	-42.00	161.00	261.00	8129.00	8103.00
	-104.00	-59.00	145.00	368.00	8129.00	8103.00
	-134.00	-86.00	43.00	388.00	8129.00	8103.00
	-146.00	-81.00	33.00	263.00	8129.00	8103.00
	-115.00	-68.00	-16.00	162.00	8128.00	8103.00
	-77.00	-34.00	-22.00	65.00	8128.00	8103.00
	-42.00	-17.00	43.00	-7.00	8129.00	8103.00
	-15.00	-8.00	144.00	-27.00	8128.00	8103.00
	22.00	4.00	61.00	-24.00	8128.00	8103.00
	57.00	25.00	27.00	-42.00	8128.00	8104.00
	62.00	34.00	-42.00	-61.00	8129.00	8104.00
	56.00	38.00	-104.00	-80.00	8128.00	8103.00
	40.00	30.00	-93.00	-78.00	8127.00	8102.00
	13.00	23.00	-53.00	-58.00	8128.00	8103.00
	-10.00	15.00	-58.00	-12.00	8129.00	8104.00
	-36.00	-7.00	-73.00	-7.00	8128.00	8103.00
	-40.00	-9.00	-70.00	-54.00	8128.00	8103.00
	-26.00	-2.00	-28.00	-67.00	8128.00	8103.00
	-11.00	2.00	21.00	-40.00	8128.00	8103.00
	6.00	3.00	64.00	-37.00	8128.00	8103.00
	27.00	6.00	41.00	-50.00	8128.00	8103.00
	44.00	8.00	-49.00	-51.00	8128.00	8104.00
	47.00	4.00	-65.00	-52.00	8128.00	8103.00
	44.00	6.00	-71.00	-68.00	8128.00	8103.00
	32.00	11.00	-52.00	-70.00	8128.00	8103.00
	13.00	12.00	33.00	-40.00	8128.00	8103.00
	7.00	0.00	133.00	-2.00	8128.00	8103.00
	2.00	-13.00	148.00	13.00	8127.00	8103.00
	-2.00	-6.00	40.00	1.00	8128.00	8103.00
	-8.00	5.00	-62.00	11.00	8128.00	8103.00
	0.00	-1.00	-60.00	24.00	8127.00	8103.00
	6.00	-3.00	-71.00	5.00	8128.00	8103.00
	2.00	3.00	-113.00	25.00	8127.00	8103.00
	9.00	3.00	-39.00	19.00	8128.00	8103.00
	18.00	2.00	-30.00	-10.00	8128.00	8103.00
	13.00	-4.00	-12.00	-22.00	8128.00	8103.00
	1.00	-4.00	100.00	-17.00	8129.00	8104.00
	-5.00	4.00	251.00	-4.00	8129.00	8104.00
	-9.00	2.00	317.00	32.00	8128.00	8103.00
	-15.00	4.00	184.00	66.00	8128.00	8104.00
	-22.00	2.00	43.00	48.00	8128.00	8104.00
	-29.00	-9.00	-17.00	14.00	8128.00	8103.00
	-33.00	-21.00	-20.00	15.00	8128.00	8103.00
	-19.00	-23.00	-66.00	8.00	8128.00	8103.00
	-13.00	-19.00	-130.00	-5.00	8128.00	8103.00
	-9.00	-13.00	-171.00	-13.00	8129.00	8103.00
	-2.00	-15.00	-206.00	-13.00	8129.00	8103.00
	11.00	-13.00	-251.00	-28.00	8129.00	8103.00
	32.00	1.00	-344.00	-70.00	8128.00	8103.00
	44.00	9.00	-284.00	-64.00	8129.00	8104.00
	39.00	15.00	-142.00	-16.00	8128.00	8103.00
	26.00	11.00	-74.00	39.00	8127.00	8103.00
	0.00	-1.00	-45.00	126.00	8128.00	8103.00
	-30.00	-3.00	175.00	149.00	8128.00	8103.00
	-37.00	-4.00	329.00	93.00	8127.00	8103.00
	-50.00	-6.00	313.00	14.00	8127.00	8102.00
	-44.00	4.00	113.00	-51.00	8129.00	8104.00
	-26.00	17.00	167.00	-77.00	8129.00	8103.00
	2.00	15.00	213.00	-73.00	8129.00	8104.00
	38.00	14.00	59.00	-52.00	8128.00	8103.00
	37.00	0.00	-27.00	-66.00	8127.00	8102.00
	24.00	-9.00	-42.00	-105.00	8128.00	8103.00
	8.00	-11.00	100.00	-65.00	8128.00	8104.00
	-19.00	-31.00	104.00	43.00	8128.00	8102.00
	-35.00	-38.00	49.00	121.00	8128.00	8103.00
	-44.00	-35.00	9.00	153.00	8129.00	8104.00
	-46.00	-31.00	-35.00	126.00	8128.00	8102.00
	-43.00	-15.00	-70.00	41.00	8126.00	8102.00
	-16.00	-2.00	-92.00	7.00	8127.00	8102.00
	-7.00	1.00	-57.00	-16.00	8128.00	8103.00
	4.00	8.00	-86.00	-40.00	8128.00	8102.00
	13.00	17.00	-37.00	-74.00	8127.00	8102.00
	33.00	28.00	-18.00	-68.00	8128.00	8103.00
	48.00	32.00	-12.00	-67.00	8128.00	8103.00
	47.00	29.00	73.00	-76.00	8128.00	8103.00
	40.00	24.00	65.00	-57.00	8128.00	8102.00
	30.00	21.00	25.00	-31.00	8128.00	8103.00
	11.00	9.00	45.00	29.00	8127.00	8103.00
	-6.00	-9.00	17.00	70.00	8127.00	8103.00
	-21.00	-25.00	-9.00	100.00	8127.00	8103.00
	-23.00	-24.00	30.00	76.00	8128.00	8103.00
	-20.00	-21.00	-25.00	30.00	8128.00	8103.00
	-16.00	-17.00	-49.00	-1.00	8128.00	8103.00
	-10.00	-13.00	-74.00	-25.00	8128.00	8102.00
	-5.00	-9.00	-87.00	-40.00	8128.00	8102.00
	10.00	-1.00	5.00	-45.00	8128.00	8103.00
	25.00	6.00	159.00	-53.00	8128.00	8103.00
	35.00	8.00	241.00	-76.00	8128.00	8102.00
	40.00	6.00	61.00	-99.00	8127.00	8102.00
	30.00	10.00	-102.00	-68.00	8127.00	8102.00
	13.00	15.00	-33.00	-41.00	8128.00	8103.00
	-3.00	22.00	-73.00	10.00	8127.00	8103.00
	-18.00	18.00	-283.00	76.00	8127.00	8102.00
	-32.00	4.00	-228.00	103.00	8128.00	8103.00
	-43.00	-9.00	-153.00	116.00	8127.00	8102.00
	-42.00	-15.00	-171.00	71.00	8127.00	8103.00
	-28.00	-12.00	-164.00	27.00	8128.00	8103.00
	-19.00	-11.00	-125.00	-8.00	8128.00	8103.00
	0.00	-13.00	-71.00	-24.00	8128.00	8103.00
	13.00	-6.00	-35.00	-90.00	8128.00	8103.00
	34.00	3.00	24.00	-147.00	8127.00	8103.00
	46.00	1.00	26.00	-126.00	8128.00	8104.00
	36.00	-3.00	53.00	-51.00	8128.00	8104.00
	17.00	-2.00	75.00	29.00	8128.00	8104.00
	-3.00	-5.00	113.00	124.00	8128.00	8103.00
	-23.00	-12.00	77.00	164.00	8127.00	8102.00
	-35.00	-10.00	140.00	128.00	8129.00	8103.00
	-36.00	-1.00	241.00	4.00	8128.00	8103.00
	-20.00	5.00	69.00	-16.00	8129.00	8103.00
	-9.00	-8.00	-12.00	17.00	8128.00	8104.00
	-15.00	-24.00	123.00	14.00	8128.00	8103.00
	-11.00	-18.00	161.00	9.00	8127.00	8103.00
	-8.00	-12.00	91.00	3.00	8128.00	8104.00
	-8.00	-5.00	63.00	-55.00	8129.00	8104.00
	-2.00	5.00	-10.00	-113.00	8128.00	8103.00
	13.00	19.00	-90.00	-92.00	8128.00	8104.00
	28.00	36.00	-118.00	-66.00	8128.00	8103.00
	33.00	35.00	-135.00	-64.00	8128.00	8103.00
	27.00	18.00	-148.00	-45.00	8129.00	8104.00
	19.00	3.00	-33.00	52.00	8128.00	8103.00
	3.00	-5.00	191.00	108.00	8128.00	8103.00
	-23.00	-15.00	63.00	91.00	8128.00	8103.00
	-29.00	-29.00	18.00	62.00	8128.00	8103.00
	-42.00	-32.00	130.00	47.00	8128.00	8103.00
	-36.00	-32.00	222.00	32.00	8128.00	8104.00
	-30.00	-26.00	151.00	5.00	8128.00	8104.00
	-19.00	-14.00	-5.00	-23.00	8129.00	8103.00
	-11.00	1.00	-80.00	-42.00	8129.00	8103.00
	2.00	3.00	-158.00	-30.00	8128.00	8103.00
	6.00	9.00	-184.00	-35.00	8128.00	8103.00
	10.00	10.00	-156.00	-18.00	8129.00	8103.00
	10.00	2.00	-122.00	-11.00	8128.00	8103.00
	0.00	0.00	-83.00	-29.00	8129.00	8103.00
	-6.00	10.00	31.00	-32.00	8128.00	8103.00
	-3.00	8.00	42.00	-26.00	8130.00	8104.00
	0.00	9.00	-11.00	2.00	8127.00	8103.00
	0.00	16.00	10.00	2.00	8128.00	8103.00
	7.00	5.00	46.00	20.00	8127.00	8103.00
	13.00	5.00	79.00	-16.00	8129.00	8103.00
	25.00	6.00	50.00	-35.00	8128.00	8103.00
	34.00	14.00	-44.00	-43.00	8128.00	8103.00
	34.00	17.00	-106.00	-54.00	8128.00	8103.00
	20.00	-1.00	-62.00	13.00	8128.00	8103.00
	4.00	-16.00	23.00	50.00	8128.00	8104.00
	-12.00	-13.00	-67.00	37.00	8128.00	8103.00
	-20.00	-9.00	-43.00	28.00	8127.00	8103.00
	-19.00	-25.00	21.00	83.00	8128.00	8103.00
	-14.00	-24.00	-40.00	48.00	8128.00	8103.00
	-2.00	-8.00	-48.00	-15.00	8128.00	8103.00
	3.00	-1.00	-3.00	-37.00	8128.00	8103.00
	12.00	2.00	-47.00	-42.00	8129.00	8104.00
	17.00	17.00	-6.00	-32.00	8128.00	8103.00
	15.00	18.00	84.00	-21.00	8128.00	8103.00
	8.00	14.00	54.00	-17.00	8128.00	8103.00
	2.00	12.00	156.00	1.00	8127.00	8103.00
	-10.00	-3.00	215.00	55.00	8127.00	8103.00
	-7.00	-7.00	124.00	90.00	8128.00	8103.00
	-14.00	-14.00	83.00	87.00	8128.00	8103.00
	-24.00	-14.00	140.00	31.00	8127.00	8103.00
	-29.00	-12.00	38.00	-25.00	8128.00	8102.00
	-24.00	-3.00	-44.00	-107.00	8128.00	8103.00
	-3.00	-4.00	-97.00	-94.00	8128.00	8103.00
	9.00	-15.00	-128.00	-36.00	8128.00	8102.00
	11.00	-5.00	-148.00	-37.00	8128.00	8102.00
	0.00	-1.00	-122.00	11.00	8127.00	8103.00
	-5.00	-9.00	34.00	57.00	8128.00	8103.00
	-15.00	-21.00	87.00	76.00	8127.00	8103.00
	-24.00	-11.00	103.00	51.00	8127.00	8103.00
	-15.00	0.00	86.00	34.00	8127.00	8103.00
	-7.00	2.00	26.00	3.00	8127.00	8103.00
	5.00	5.00	-45.00	-18.00	8128.00	8102.00
	17.00	2.00	-119.00	-50.00	8128.00	8103.00
	40.00	16.00	-246.00	-81.00	8127.00	8103.00
	44.00	24.00	-207.00	-96.00	8127.00	8103.00
	38.00	18.00	-121.00	-69.00	8127.00	8102.00
	25.00	10.00	-51.00	-29.00	8128.00	8104.00
	1.00	4.00	5.00	28.00	8127.00	8103.00
	-23.00	0.00	19.00	75.00	8128.00	8103.00
	-24.00	-8.00	12.00	90.00	8128.00	8103.00
	-24.00	-13.00	30.00	88.00	8128.00	8104.00
	-17.00	-12.00	142.00	52.00	8127.00	8103.00
	-22.00	-21.00	308.00	10.00	8128.00	8104.00
	-27.00	-15.00	369.00	-27.00	8128.00	8103.00
	-13.00	-10.00	187.00	-7.00	8128.00	8103.00
	3.00	-7.00	47.00	-11.00	8129.00	8104.00
	19.00	4.00	-135.00	-87.00	8128.00	8103.00
	35.00	9.00	-264.00	-134.00	8127.00	8103.00
	49.00	20.00	-332.00	-130.00	8128.00	8103.00
	34.00	20.00	-398.00	-89.00	8128.00	8103.00
	5.00	0.00	-293.00	48.00	8127.00	8102.00
	-22.00	-7.00	-159.00	105.00	8128.00	8103.00
	-37.00	-19.00	-76.00	165.00	8128.00	8103.00
	-39.00	-11.00	-57.00	121.00	8128.00	8103.00
	-32.00	-5.00	-72.00	55.00	8128.00	8104.00
	-22.00	5.00	-75.00	-45.00	8128.00	8103.00
	-8.00	14.00	-67.00	-110.00	8128.00	8103.00
	12.00	19.00	1.00	-103.00	8128.00	8104.00
	11.00	3.00	282.00	-70.00	8128.00	8103.00
	13.00	4.00	362.00	-27.00	8128.00	8103.00
	12.00	-4.00	352.00	27.00	8128.00	8104.00
	1.00	-19.00	258.00	97.00	8128.00	8104.00
	-14.00	-36.00	234.00	98.00	8128.00	8103.00
	-23.00	-33.00	222.00	40.00	8128.00	8104.00
	-25.00	-31.00	155.00	5.00	8128.00	8103.00
	-9.00	-26.00	185.00	-16.00	8129.00	8103.00
	11.00	-15.00	124.00	-29.00	8129.00	8104.00
	20.00	6.00	-28.00	-58.00	8128.00	8103.00
	27.00	14.00	-108.00	-70.00	8129.00	8104.00
	24.00	17.00	-55.00	-6.00	8128.00	8103.00
	8.00	16.00	-62.00	53.00	8128.00	8103.00
	-3.00	17.00	-170.00	43.00	8128.00	8104.00
	-9.00	12.00	-242.00	34.00	8128.00	8104.00
	-20.00	-1.00	-146.00	14.00	8127.00	8103.00
	-23.00	1.00	-72.00	-35.00	8129.00	8104.00
	-16.00	5.00	-75.00	-59.00	8128.00	8103.00
	-17.00	3.00	-157.00	-52.00	8128.00	8103.00
	-14.00	3.00	-157.00	-45.00	8128.00	8103.00
	-5.00	4.00	-173.00	-14.00	8129.00	8104.00
	5.00	1.00	-107.00	41.00	8128.00	8103.00
	12.00	4.00	-36.00	58.00	8127.00	8103.00
	18.00	6.00	53.00	46.00	8128.00	8103.00
	17.00	0.00	242.00	56.00	8128.00	8104.00
	6.00	-12.00	282.00	58.00	8127.00	8102.00
	9.00	-6.00	146.00	7.00	8128.00	8104.00
	6.00	-4.00	28.00	-30.00	8129.00	8103.00
	-10.00	-5.00	-88.00	-50.00	8128.00	8103.00
	-16.00	-11.00	-118.00	-66.00	8129.00	8104.00
	-13.00	-17.00	-82.00	-79.00	8128.00	8103.00
	-13.00	-16.00	-60.00	-67.00	8129.00	8104.00
	-17.00	-5.00	-69.00	-38.00	8128.00	8103.00
	-14.00	-6.00	4.00	-4.00	8129.00	8103.00
	-10.00	4.00	32.00	42.00	8128.00	8103.00
	-14.00	4.00	39.00	84.00	8128.00	8104.00
	-11.00	8.00	35.00	66.00	8129.00	8104.00
	-9.00	8.00	88.00	6.00	8127.00	8102.00
	4.00	14.00	105.00	-33.00	8129.00	8103.00
	16.00	11.00	53.00	-20.00	8128.00	8104.00
	22.00	5.00	-14.00	-12.00	8128.00	8103.00
	22.00	-6.00	-31.00	-26.00	8129.00	8104.00
	20.00	-5.00	-78.00	-50.00	8128.00	8103.00
	24.00	-1.00	-85.00	-65.00	8128.00	8103.00
	22.00	-9.00	-37.00	-41.00	8129.00	8103.00
	20.00	-5.00	45.00	-10.00	8129.00	8104.00
	10.00	-10.00	133.00	34.00	8128.00	8103.00
	-2.00	-18.00	277.00	73.00	8128.00	8103.00
	-19.00	-11.00	228.00	95.00	8128.00	8103.00
	-21.00	-18.00	1.00	136.00	8128.00	8103.00
	-16.00	-13.00	-66.00	84.00	8128.00	8103.00
	-13.00	-8.00	-141.00	42.00	8127.00	8103.00
	-12.00	-8.00	-152.00	14.00	8128.00	8104.00
	-7.00	-1.00	-168.00	-25.00	8128.00	8103.00
	2.00	9.00	-188.00	-35.00	8129.00	8104.00
	14.00	13.00	-129.00	-36.00	8128.00	8102.00
	25.00	9.00	12.00	-19.00	8129.00	8104.00
	35.00	12.00	-13.00	-12.00	8129.00	8103.00
	31.00	24.00	8.00	-63.00	8128.00	8103.00
	21.00	20.00	173.00	-67.00	8128.00	8103.00
	5.00	11.00	141.00	-25.00	8129.00	8104.00
	6.00	26.00	89.00	-18.00	8128.00	8102.00
	15.00	9.00	29.00	32.00	8128.00	8103.00
	-2.00	-17.00	-37.00	22.00	8127.00	8103.00
	-5.00	-30.00	-35.00	-42.00	8128.00	8103.00
	-16.00	-33.00	-19.00	-90.00	8128.00	8103.00
	-2.00	-12.00	-129.00	-69.00	8128.00	8103.00
	-16.00	-16.00	-124.00	-23.00	8128.00	8103.00
	-34.00	-31.00	94.00	13.00	8127.00	8103.00
	-45.00	-25.00	25.00	35.00	8128.00	8103.00
	-48.00	-13.00	-102.00	71.00	8128.00	8103.00
	-38.00	-3.00	-125.00	110.00	8128.00	8104.00
	-36.00	0.00	-94.00	95.00	8128.00	8103.00
	-41.00	-5.00	70.00	62.00	8128.00	8103.00
	-34.00	-3.00	94.00	-3.00	8128.00	8102.00
	-17.00	8.00	-12.00	-48.00	8128.00	8103.00
	17.00	13.00	-4.00	-53.00	8128.00	8103.00
	58.00	25.00	-35.00	-67.00	8127.00	8103.00
	69.00	30.00	-131.00	-121.00	8127.00	8103.00
	50.00	24.00	4.00	-151.00	8128.00	8103.00
	14.00	7.00	183.00	-118.00	8128.00	8103.00
	-19.00	-7.00	236.00	-7.00	8128.00	8103.00
	-38.00	-4.00	191.00	141.00	8127.00	8102.00
	-49.00	-4.00	-4.00	164.00	8128.00	8103.00
	-53.00	-8.00	-76.00	109.00	8127.00	8102.00
	-46.00	-18.00	-33.00	-12.00	8128.00	8103.00
	-11.00	-11.00	-71.00	-49.00	8127.00	8103.00
	11.00	-4.00	-50.00	-44.00	8128.00	8103.00
	14.00	-7.00	-12.00	-24.00	8128.00	8102.00
	14.00	-13.00	9.00	14.00	8127.00	8103.00
	8.00	-12.00	8.00	56.00	8127.00	8103.00
	6.00	-9.00	-16.00	86.00	8127.00	8103.00
	3.00	-6.00	-33.00	61.00	8127.00	8102.00
	7.00	8.00	-57.00	20.00	8127.00	8102.00
	10.00	16.00	-66.00	-30.00	8127.00	8103.00
	21.00	19.00	-17.00	-54.00	8128.00	8103.00
	29.00	16.00	105.00	-70.00	8128.00	8103.00
	36.00	17.00	189.00	-79.00	8127.00	8102.00
	32.00	19.00	190.00	-67.00	8128.00	8103.00
	24.00	17.00	283.00	-45.00	8127.00	8103.00
	18.00	14.00	194.00	-4.00	8127.00	8102.00
	14.00	12.00	63.00	32.00	8127.00	8103.00
	4.00	0.00	-15.00	79.00	8128.00	8103.00
	-13.00	-16.00	-130.00	74.00	8128.00	8103.00
	-15.00	-21.00	-234.00	27.00	8128.00	8103.00
	0.00	-15.00	-341.00	10.00	8127.00	8103.00
	25.00	-3.00	-362.00	-28.00	8128.00	8103.00
	38.00	-8.00	-314.00	-78.00	8128.00	8103.00
	41.00	-7.00	-244.00	-113.00	8129.00	8104.00
	25.00	-12.00	-87.00	-112.00	8128.00	8103.00
	12.00	-17.00	122.00	-39.00	8128.00	8103.00
	-4.00	-20.00	225.00	72.00	8129.00	8104.00
	-16.00	-9.00	208.00	144.00	8129.00	8104.00
	-30.00	-15.00	71.00	132.00	8128.00	8103.00
	-42.00	-9.00	38.00	5.00	8128.00	8104.00
	-46.00	2.00	90.00	-34.00	8129.00	8104.00
	-38.00	14.00	-4.00	31.00	8129.00	8104.00
	-28.00	6.00	-40.00	72.00	8128.00	8103.00
	-25.00	-10.00	-34.00	49.00	8128.00	8104.00
	-17.00	-4.00	-17.00	-53.00	8129.00	8103.00
	-16.00	1.00	-43.00	-118.00	8128.00	8103.00
	-5.00	-2.00	-170.00	-69.00	8128.00	8103.00
	-2.00	-2.00	-153.00	-23.00	8129.00	8103.00
	-17.00	-5.00	-68.00	27.00	8128.00	8104.00
	-28.00	-9.00	170.00	42.00	8128.00	8103.00
	-33.00	-32.00	226.00	87.00	8127.00	8102.00
	-40.00	-29.00	190.00	48.00	8128.00	8104.00
	-40.00	-34.00	102.00	75.00	8128.00	8103.00
	-33.00	-29.00	101.00	49.00	8127.00	8103.00
	-16.00	-13.00	186.00	19.00	8128.00	8104.00
	-6.00	-2.00	87.00	-13.00	8129.00	8104.00
	9.00	12.00	23.00	-28.00	8128.00	8103.00
	18.00	19.00	-25.00	-36.00	8128.00	8102.00
	26.00	24.00	-59.00	-55.00	8128.00	8103.00
	30.00	29.00	-56.00	-59.00	8129.00	8104.00
	31.00	28.00	-73.00	-51.00	8128.00	8103.00
	31.00	17.00	-43.00	-25.00	8129.00	8104.00
	27.00	12.00	-27.00	-16.00	8128.00	8103.00
	21.00	10.00	135.00	0.00	8128.00	8103.00
	11.00	-3.00	198.00	22.00	8127.00	8103.00
	7.00	-3.00	-44.00	-1.00	8129.00	8103.00
	6.00	2.00	-162.00	-32.00	8128.00	8103.00
	8.00	7.00	-211.00	-55.00	8128.00	8103.00
	14.00	7.00	-228.00	-53.00	8128.00	8103.00
	26.00	6.00	-187.00	-50.00	8128.00	8103.00
	35.00	3.00	-34.00	-59.00	8128.00	8103.00
	42.00	-1.00	45.00	-26.00	8128.00	8103.00
	34.00	7.00	79.00	3.00	8128.00	8104.00
	26.00	2.00	178.00	-12.00	8128.00	8103.00
	14.00	3.00	241.00	-25.00	8129.00	8103.00
	4.00	2.00	204.00	-19.00	8128.00	8103.00
	-21.00	-7.00	15.00	-10.00	8128.00	8103.00
	-32.00	-12.00	41.00	-9.00	8128.00	8103.00
	-38.00	-21.00	-2.00	25.00	8128.00	8103.00
	-37.00	-11.00	-83.00	62.00	8127.00	8102.00
	-30.00	7.00	-139.00	76.00	8128.00	8103.00
	-25.00	4.00	-158.00	113.00	8128.00	8104.00
	-31.00	-13.00	-97.00	114.00	8129.00	8104.00
	-25.00	-14.00	-111.00	64.00	8127.00	8103.00
	-22.00	-15.00	-53.00	20.00	8128.00	8103.00
	-9.00	-9.00	-37.00	-3.00	8128.00	8103.00
	6.00	-4.00	-56.00	-20.00	8128.00	8103.00
	14.00	-2.00	-110.00	-46.00	8128.00	8103.00
	34.00	4.00	-137.00	-111.00	8127.00	8103.00
	60.00	20.00	-161.00	-145.00	8128.00	8103.00
	62.00	22.00	-114.00	-125.00	8128.00	8103.00
	48.00	15.00	60.00	-40.00	8128.00	8103.00
	37.00	6.00	169.00	56.00	8128.00	8103.00
	26.00	-3.00	152.00	120.00	8128.00	8103.00
	12.00	-32.00	20.00	181.00	8128.00	8103.00
	-13.00	-46.00	-9.00	87.00	8128.00	8103.00
	-38.00	-31.00	-31.00	-74.00	8129.00	8103.00
	-54.00	-12.00	-69.00	-141.00	8128.00	8103.00
	-44.00	-1.00	2.00	-55.00	8128.00	8103.00
	-38.00	0.00	206.00	96.00	8128.00	8103.00
	-29.00	15.00	285.00	131.00	8128.00	8103.00
	-24.00	8.00	91.00	116.00	8128.00	8103.00
	-17.00	6.00	212.00	22.00	8127.00	8103.00
	-19.00	10.00	243.00	-19.00	8129.00	8104.00
	-20.00	8.00	242.00	-32.00	8128.00	8103.00
	-21.00	-9.00	138.00	-12.00	8128.00	8103.00
	-28.00	-13.00	44.00	-21.00	8128.00	8103.00
	-25.00	-12.00	-90.00	-55.00	8129.00	8103.00
	-13.00	-5.00	-237.00	-53.00	8128.00	8103.00
	0.00	0.00	-223.00	-34.00	8128.00	8103.00
	9.00	-7.00	-250.00	-26.00	8128.00	8103.00
	14.00	1.00	-360.00	-61.00	8127.00	8102.00
	22.00	7.00	-359.00	-56.00	8128.00	8103.00
	18.00	11.00	-228.00	-67.00	8128.00	8103.00
	16.00	7.00	-53.00	-28.00	8129.00	8104.00
	12.00	0.00	84.00	24.00	8128.00	8103.00
	-5.00	0.00	112.00	63.00	8128.00	8104.00
	-18.00	-15.00	125.00	121.00	8128.00	8103.00
	-13.00	-13.00	18.00	93.00	8127.00	8102.00
	-11.00	-3.00	95.00	65.00	8128.00	8103.00
	-14.00	6.00	115.00	41.00	8127.00	8102.00
	-10.00	6.00	73.00	3.00	8127.00	8103.00
	-7.00	-1.00	76.00	-24.00	8129.00	8103.00
	-4.00	-5.00	91.00	-41.00	8128.00	8103.00
	16.00	2.00	140.00	-60.00	8128.00	8103.00
	30.00	9.00	70.00	-65.00	8128.00	8102.00
	31.00	5.00	-15.00	-42.00	8127.00	8102.00
	25.00	-5.00	24.00	-32.00	8128.00	8103.00
	19.00	-5.00	30.00	-20.00	8128.00	8102.00
	9.00	-11.00	-28.00	28.00	8128.00	8103.00
	-4.00	-14.00	-49.00	39.00	8128.00	8103.00
	-8.00	-14.00	26.00	0.00	8129.00	8104.00
	-9.00	-5.00	37.00	-11.00	8128.00	8103.00
	-5.00	1.00	26.00	1.00	8127.00	8103.00
	2.00	1.00	-2.00	9.00	8127.00	8103.00
	3.00	-1.00	10.00	0.00	8128.00	8103.00
	3.00	2.00	29.00	-14.00	8129.00	8103.00
	3.00	4.00	-9.00	-24.00	8127.00	8102.00
	7.00	2.00	-64.00	-31.00	8129.00	8103.00
	27.00	3.00	-124.00	-49.00	8127.00	8102.00
	49.00	22.00	-192.00	-99.00	8128.00	8102.00
	57.00	38.00	-199.00	-141.00	8127.00	8102.00
	59.00	33.00	-149.00	-105.00	8128.00	8102.00
	43.00	27.00	-90.00	-46.00	8128.00	8103.00
	16.00	15.00	38.00	58.00	8127.00	8103.00
	-13.00	4.00	29.00	184.00	8128.00	8103.00
	-46.00	-14.00	-10.00	171.00	8128.00	8103.00
	-73.00	-32.00	-10.00	91.00	8128.00	8103.00
	-69.00	-31.00	71.00	60.00	8127.00	8103.00
	-57.00	-38.00	211.00	65.00	8128.00	8103.00
	-50.00	-38.00	256.00	58.00	8128.00	8103.00
	-35.00	-27.00	104.00	36.00	8126.00	8102.00
	-25.00	-22.00	61.00	5.00	8128.00	8103.00
	-15.00	-8.00	19.00	-12.00	8128.00	8103.00
	-5.00	-2.00	109.00	-9.00	8129.00	8104.00
	2.00	0.00	79.00	-20.00	8128.00	8103.00
	6.00	5.00	27.00	-41.00	8128.00	8103.00
	7.00	3.00	-18.00	-26.00	8129.00	8104.00
	-3.00	3.00	-52.00	-41.00	8128.00	8104.00
	-3.00	7.00	-79.00	-67.00	8129.00	8104.00
	5.00	15.00	-120.00	-84.00	8129.00	8104.00
	27.00	19.00	-190.00	-65.00	8128.00	8104.00
	33.00	24.00	-209.00	-70.00	8128.00	8103.00
	30.00	16.00	-140.00	-59.00	8128.00	8103.00
	22.00	-1.00	-47.00	-49.00	8128.00	8103.00
	6.00	-8.00	-15.00	36.00	8128.00	8103.00
	-8.00	-7.00	97.00	111.00	8127.00	8103.00
	-19.00	-15.00	284.00	153.00	8127.00	8102.00
	-23.00	-31.00	211.00	75.00	8128.00	8103.00
	-16.00	-26.00	127.00	16.00	8127.00	8103.00
	-11.00	-21.00	55.00	-9.00	8129.00	8103.00
	5.00	-9.00	-27.00	-17.00	8128.00	8104.00
	5.00	1.00	-41.00	-20.00	8129.00	8104.00
	-2.00	7.00	-107.00	-20.00	8128.00	8103.00
	3.00	11.00	-137.00	-32.00	8129.00	8104.00
	11.00	12.00	-84.00	-46.00	8129.00	8104.00
	21.00	15.00	-44.00	-42.00	8128.00	8103.00
	35.00	21.00	-84.00	-29.00	8129.00	8104.00
	39.00	20.00	-158.00	-44.00	8128.00	8104.00
	29.00	7.00	-57.00	-19.00	8129.00	8104.00
	-4.00	0.00	3.00	19.00	8128.00	8103.00
	-30.00	2.00	-6.00	-15.00	8129.00	8103.00
	-40.00	-5.00	45.00	6.00	8128.00	8104.00
	-41.00	-10.00	25.00	28.00	8128.00	8104.00
	-44.00	-8.00	12.00	31.00	8128.00	8104.00
	-34.00	-5.00	-2.00	-15.00	8130.00	8104.00
	-8.00	0.00	5.00	-15.00	8128.00	8103.00
	7.00	-4.00	35.00	6.00	8128.00	8104.00
	13.00	-6.00	20.00	1.00	8128.00	8103.00
	13.00	-11.00	57.00	6.00	8128.00	8103.00
	10.00	-16.00	51.00	41.00	8127.00	8103.00
	9.00	-16.00	47.00	76.00	8127.00	8103.00
	5.00	-12.00	10.00	37.00	8128.00	8104.00
	-2.00	-12.00	-4.00	-5.00	8129.00	8104.00
	-7.00	-8.00	-40.00	-59.00	8129.00	8103.00
	-8.00	-2.00	-64.00	-82.00	8128.00	8102.00
	-5.00	6.00	-28.00	-64.00	8129.00	8103.00
	-6.00	5.00	-24.00	-13.00	8129.00	8104.00
	-2.00	14.00	-91.00	-15.00	8129.00	8104.00
	21.00	16.00	-26.00	10.00	8128.00	8104.00
	39.00	12.00	54.00	17.00	8128.00	8104.00
	42.00	9.00	-24.00	-26.00	8128.00	8103.00
	40.00	18.00	-99.00	-86.00	8128.00	8103.00
	13.00	24.00	68.00	-33.00	8128.00	8103.00
	-10.00	18.00	518.00	59.00	8128.00	8103.00
	-21.00	7.00	188.00	163.00	8128.00	8103.00
	-48.00	-23.00	-44.00	189.00	8129.00	8104.00
	-59.00	-27.00	-70.00	96.00	8128.00	8103.00
	-64.00	-32.00	-72.00	-6.00	8128.00	8103.00
	-35.00	-23.00	-65.00	-27.00	8129.00	8103.00
	-9.00	-16.00	-9.00	-33.00	8129.00	8104.00
	11.00	-20.00	-6.00	-28.00	8128.00	8103.00
	48.00	-10.00	7.00	-67.00	8128.00	8103.00
	82.00	7.00	-96.00	-134.00	8129.00	8103.00
	73.00	14.00	-212.00	-122.00	8128.00	8103.00
	49.00	13.00	-70.00	-29.00	8128.00	8103.00
	9.00	-1.00	120.00	82.00	8129.00	8104.00
	-35.00	7.00	37.00	135.00	8128.00	8103.00
	-56.00	-10.00	29.00	155.00	8128.00	8103.00
	-71.00	-40.00	79.00	126.00	8128.00	8103.00
	-80.00	-32.00	69.00	-1.00	8128.00	8103.00
	-61.00	-8.00	3.00	-35.00	8129.00	8103.00
	-38.00	-1.00	2.00	-28.00	8128.00	8103.00
	-20.00	5.00	6.00	-27.00	8129.00	8104.00
	-12.00	7.00	16.00	-29.00	8128.00	8103.00
	-2.00	4.00	15.00	-21.00	8128.00	8103.00
	6.00	7.00	56.00	-32.00	8128.00	8103.00
	13.00	11.00	77.00	-44.00	8128.00	8103.00
	19.00	11.00	49.00	-61.00	8129.00	8103.00
	27.00	8.00	-14.00	-78.00	8129.00	8103.00
	39.00	13.00	-90.00	-92.00	8129.00	8104.00
	46.00	17.00	-156.00	-102.00	8128.00	8103.00
	42.00	12.00	-144.00	-88.00	8128.00	8103.00
	28.00	0.00	-113.00	-42.00	8128.00	8103.00
	13.00	0.00	-79.00	13.00	8128.00	8103.00
	0.00	4.00	69.00	59.00	8127.00	8103.00
	-4.00	1.00	70.00	89.00	8128.00	8103.00
	-5.00	-3.00	-44.00	73.00	8129.00	8104.00
	-7.00	-14.00	-69.00	22.00	8127.00	8103.00
	7.00	-7.00	-26.00	-3.00	8128.00	8103.00
	48.00	9.00	-102.00	-1.00	8129.00	8103.00
	70.00	13.00	-246.00	-38.00	8128.00	8103.00
	72.00	20.00	-234.00	-94.00	8127.00	8102.00
	56.00	13.00	112.00	-46.00	8129.00	8104.00
	18.00	-3.00	313.00	39.00	8127.00	8102.00
	-9.00	5.00	408.00	108.00	8128.00	8103.00
	-37.00	-11.00	277.00	146.00	8128.00	8103.00
	-73.00	-30.00	65.00	105.00	8128.00	8103.00
	-84.00	-31.00	-37.00	73.00	8128.00	8103.00
	-70.00	-26.00	-56.00	48.00	8128.00	8103.00
	-50.00	-27.00	-37.00	32.00	8128.00	8103.00
	-38.00	-25.00	34.00	-10.00	8128.00	8102.00
	-10.00	-17.00	44.00	-62.00	8128.00	8103.00
	20.00	-3.00	49.00	-104.00	8128.00	8103.00
	42.00	6.00	22.00	-115.00	8129.00	8103.00
	41.00	13.00	-6.00	-136.00	8128.00	8102.00
	25.00	17.00	-71.00	-119.00	8127.00	8102.00
	4.00	7.00	-50.00	-33.00	8129.00	8103.00
	-25.00	3.00	10.00	50.00	8128.00	8103.00
	-45.00	-1.00	-45.00	98.00	8127.00	8102.00
	-51.00	2.00	-100.00	96.00	8128.00	8103.00
	-49.00	-3.00	-102.00	108.00	8128.00	8103.00
	-38.00	-5.00	-71.00	98.00	8127.00	8102.00
	-29.00	-5.00	-32.00	19.00	8127.00	8103.00
	-8.00	9.00	-15.00	-29.00	8128.00	8103.00
	11.00	14.00	42.00	-65.00	8128.00	8103.00
	26.00	16.00	46.00	-119.00	8127.00	8103.00
	40.00	13.00	-29.00	-130.00	8128.00	8103.00
	38.00	10.00	-97.00	-66.00	8127.00	8103.00
	27.00	4.00	-12.00	10.00	8128.00	8103.00
	14.00	-16.00	-83.00	95.00	8128.00	8104.00
	-13.00	-36.00	-124.00	147.00	8128.00	8103.00
	-28.00	-56.00	-99.00	151.00	8127.00	8103.00
	-35.00	-60.00	-57.00	80.00	8128.00	8103.00
	-31.00	-31.00	5.00	16.00	8128.00	8103.00
	-19.00	-6.00	28.00	-21.00	8129.00	8103.00
	0.00	7.00	52.00	-30.00	8129.00	8104.00
	27.00	16.00	156.00	-68.00	8128.00	8103.00
	37.00	23.00	104.00	-112.00	8129.00	8103.00
	50.00	29.00	16.00	-155.00	8128.00	8103.00
	56.00	30.00	-130.00	-186.00	8128.00	8103.00
	56.00	26.00	-215.00	-152.00	8129.00	8104.00
	51.00	28.00	-290.00	-48.00	8128.00	8103.00
	36.00	30.00	-257.00	32.00	8128.00	8103.00
	12.00	34.00	-25.00	56.00	8127.00	8103.00
	-14.00	8.00	211.00	101.00	8128.00	8103.00
	-36.00	-22.00	336.00	159.00	8129.00	8104.00
	-53.00	-13.00	272.00	132.00	8128.00	8103.00
	-43.00	-7.00	137.00	65.00	8127.00	8103.00
	-32.00	-13.00	162.00	22.00	8127.00	8103.00
	-15.00	-25.00	142.00	31.00	8128.00	8104.00
	16.00	-21.00	176.00	25.00	8128.00	8103.00
	27.00	-21.00	173.00	13.00	8128.00	8103.00
	12.00	-21.00	50.00	16.00	8127.00	8103.00
	2.00	-10.00	184.00	-15.00	8129.00	8104.00
	-8.00	-1.00	218.00	-41.00	8129.00	8104.00
	-6.00	1.00	163.00	-36.00	8128.00	8103.00
	4.00	1.00	77.00	-60.00	8128.00	8103.00
	1.00	3.00	-93.00	-81.00	8129.00	8104.00
	5.00	1.00	-147.00	-89.00	8128.00	8103.00
	9.00	22.00	-289.00	-107.00	8128.00	8103.00
	-4.00	25.00	-520.00	-83.00	8128.00	8103.00
	-10.00	12.00	-486.00	-16.00	8128.00	8103.00
	-17.00	-3.00	-387.00	1.00	8128.00	8104.00
	-43.00	-10.00	-264.00	20.00	8127.00	8103.00
	-56.00	-24.00	-121.00	55.00	8128.00	8103.00
	-46.00	-32.00	87.00	131.00	8128.00	8103.00
	-43.00	-36.00	230.00	176.00	8128.00	8103.00
	-31.00	-24.00	281.00	125.00	8128.00	8103.00
	-4.00	-9.00	16.00	11.00	8128.00	8103.00
	18.00	-8.00	-35.00	-44.00	8128.00	8103.00
	28.00	4.00	-121.00	-92.00	8129.00	8104.00
	34.00	8.00	-135.00	-118.00	8128.00	8103.00
	22.00	1.00	-149.00	-85.00	8128.00	8103.00
	0.00	-4.00	-34.00	-8.00	8128.00	8103.00
	-15.00	-7.00	135.00	52.00	8129.00	8105.00
	-18.00	2.00	235.00	61.00	8128.00	8104.00
	-17.00	-3.00	392.00	84.00	8128.00	8103.00
	-11.00	-1.00	121.00	53.00	8128.00	8103.00
	-4.00	5.00	-10.00	6.00	8129.00	8104.00
	3.00	8.00	-11.00	-15.00	8129.00	8103.00
	10.00	-3.00	30.00	6.00	8128.00	8103.00
	12.00	5.00	20.00	17.00	8127.00	8103.00
	1.00	6.00	153.00	18.00	8127.00	8102.00
	0.00	8.00	314.00	-1.00	8129.00	8104.00
	7.00	12.00	131.00	-3.00	8129.00	8104.00
	24.00	15.00	58.00	-18.00	8129.00	8103.00
	30.00	13.00	-3.00	-41.00	8128.00	8103.00
	26.00	5.00	-28.00	-52.00	8128.00	8104.00
	31.00	2.00	-78.00	-68.00	8128.00	8103.00
	30.00	6.00	-143.00	-99.00	8128.00	8103.00
	28.00	6.00	-215.00	-94.00	8128.00	8103.00
	15.00	2.00	-201.00	-94.00	8129.00	8104.00
	8.00	-4.00	-132.00	-81.00	8129.00	8104.00
	4.00	-4.00	-47.00	-36.00	8129.00	8103.00
	10.00	4.00	-160.00	11.00	8128.00	8103.00
	-5.00	0.00	-16.00	70.00	8128.00	8104.00
	-12.00	-12.00	96.00	72.00	8128.00	8104.00
	-21.00	-11.00	189.00	49.00	8128.00	8104.00
	-34.00	-10.00	294.00	87.00	8129.00	8104.00
	-19.00	-6.00	209.00	132.00	8129.00	8103.00
	-23.00	-9.00	69.00	114.00	8128.00	8103.00
	-26.00	-4.00	-6.00	57.00	8128.00	8104.00
	-37.00	-22.00	-49.00	47.00	8128.00	8104.00
	-40.00	-19.00	-103.00	47.00	8129.00	8104.00
	-38.00	-11.00	-84.00	5.00	8128.00	8103.00
	-30.00	-10.00	-60.00	-15.00	8129.00	8103.00
	-21.00	-6.00	-36.00	-31.00	8128.00	8103.00
	-12.00	0.00	-26.00	-42.00	8129.00	8104.00
	5.00	2.00	19.00	-48.00	8128.00	8103.00
	18.00	-2.00	51.00	-52.00	8128.00	8103.00
	26.00	-3.00	23.00	-60.00	8129.00	8104.00
	34.00	-2.00	8.00	-62.00	8128.00	8103.00
	35.00	-2.00	24.00	-51.00	8128.00	8103.00
	32.00	-4.00	30.00	-26.00	8129.00	8104.00
	27.00	-2.00	-35.00	-18.00	8128.00	8103.00
	22.00	8.00	-93.00	-19.00	8128.00	8103.00
	14.00	8.00	-106.00	-9.00	8130.00	8104.00
	4.00	10.00	-67.00	-17.00	8128.00	8103.00
	-6.00	15.00	-112.00	-9.00	8129.00	8103.00
	-6.00	13.00	-147.00	16.00	8128.00	8103.00
	0.00	10.00	-165.00	48.00	8127.00	8103.00
	16.00	13.00	-141.00	51.00	8128.00	8104.00
	16.00	14.00	-126.00	9.00	8127.00	8103.00
	8.00	20.00	-131.00	-26.00	8128.00	8103.00
	8.00	21.00	-64.00	-51.00	8128.00	8104.00
	3.00	17.00	73.00	-73.00	8129.00	8104.00
	-3.00	-5.00	50.00	-21.00	8129.00	8104.00
	-16.00	-21.00	-18.00	-4.00	8129.00	8103.00
	-24.00	-20.00	-26.00	-17.00	8129.00	8104.00
	-24.00	-34.00	74.00	-9.00	8129.00	8104.00
	-21.00	-36.00	26.00	32.00	8127.00	8102.00
	-23.00	-29.00	20.00	22.00	8128.00	8103.00
	-26.00	-26.00	53.00	38.00	8128.00	8104.00
	-19.00	-10.00	149.00	12.00	8128.00	8103.00
	8.00	-3.00	208.00	40.00	8128.00	8103.00
	36.00	8.00	205.00	-26.00	8128.00	8102.00
	46.00	11.00	109.00	-38.00	8128.00	8103.00
	35.00	4.00	141.00	-1.00	8128.00	8104.00
	8.00	-7.00	223.00	34.00	8128.00	8104.00
	-26.00	-2.00	121.00	87.00	8128.00	8103.00
	-47.00	13.00	50.00	87.00	8128.00	8103.00
	-51.00	1.00	-14.00	92.00	8128.00	8102.00
	-45.00	-9.00	-81.00	13.00	8128.00	8103.00
	-22.00	-8.00	-136.00	-27.00	8128.00	8103.00
	13.00	7.00	-204.00	-80.00	8128.00	8103.00
	44.00	24.00	-249.00	-148.00	8128.00	8104.00
	57.00	28.00	-271.00	-148.00	8128.00	8103.00
	51.00	22.00	-188.00	-115.00	8128.00	8103.00
	31.00	12.00	71.00	-40.00	8129.00	8103.00
	3.00	0.00	221.00	40.00	8128.00	8104.00
	-20.00	-25.00	101.00	174.00	8129.00	8104.00
	-34.00	-38.00	83.00	178.00	8127.00	8102.00
	-47.00	-42.00	72.00	124.00	8128.00	8104.00
	-42.00	-33.00	60.00	43.00	8128.00	8104.00
	-34.00	-31.00	64.00	29.00	8128.00	8104.00
	-20.00	-32.00	19.00	46.00	8127.00	8103.00
	-14.00	-12.00	-43.00	16.00	8128.00	8103.00
	-5.00	4.00	-67.00	-28.00	8128.00	8103.00
	5.00	14.00	-87.00	-61.00	8128.00	8103.00
	7.00	21.00	-103.00	-68.00	8128.00	8103.00
	2.00	24.00	-78.00	-45.00	8128.00	8103.00
	-5.00	23.00	22.00	-26.00	8128.00	8103.00
	-7.00	16.00	165.00	-11.00	8128.00	8103.00
	-6.00	14.00	129.00	-1.00	8128.00	8103.00
	2.00	19.00	112.00	1.00	8128.00	8104.00
	10.00	6.00	87.00	-12.00	8129.00	8103.00
	14.00	1.00	-66.00	-10.00	8129.00	8103.00
	18.00	1.00	-90.00	-19.00	8129.00	8103.00
	24.00	4.00	-153.00	-32.00	8127.00	8103.00
	31.00	11.00	-239.00	-79.00	8128.00	8102.00
	40.00	9.00	-249.00	-122.00	8129.00	8103.00
	51.00	5.00	-257.00	-128.00	8128.00	8103.00
	54.00	3.00	-258.00	-109.00	8128.00	8104.00
	27.00	-15.00	-113.00	-54.00	8128.00	8103.00
	-3.00	-30.00	119.00	31.00	8127.00	8102.00
	-39.00	-27.00	317.00	99.00	8128.00	8103.00
	-45.00	-14.00	332.00	107.00	8128.00	8103.00
	-40.00	-7.00	170.00	119.00	8128.00	8103.00
	-34.00	-2.00	82.00	82.00	8128.00	8103.00
	-19.00	0.00	31.00	63.00	8127.00	8103.00
	3.00	-4.00	73.00	79.00	8128.00	8104.00
	35.00	1.00	199.00	75.00	8128.00	8103.00
	39.00	11.00	82.00	-20.00	8128.00	8103.00
	35.00	18.00	154.00	-41.00	8127.00	8102.00
	22.00	26.00	80.00	-33.00	8128.00	8103.00
	2.00	26.00	-201.00	-23.00	8128.00	8103.00
	-14.00	2.00	-193.00	-6.00	8128.00	8103.00
	-30.00	-13.00	-150.00	-33.00	8128.00	8103.00
	-25.00	-5.00	-61.00	-115.00	8128.00	8104.00
	-24.00	-2.00	52.00	-139.00	8128.00	8103.00
	-13.00	-7.00	41.00	-35.00	8128.00	8103.00
	-30.00	-11.00	62.00	82.00	8128.00	8103.00
	-39.00	-15.00	40.00	150.00	8128.00	8102.00
	-41.00	-38.00	88.00	214.00	8128.00	8103.00
	-53.00	-52.00	92.00	144.00	8127.00	8103.00
	-55.00	-50.00	75.00	22.00	8127.00	8103.00
	-45.00	-38.00	12.00	-44.00	8128.00	8103.00
	-10.00	-16.00	-67.00	-34.00	8128.00	8103.00
	11.00	2.00	-118.00	-43.00	8128.00	8103.00
	29.00	18.00	-194.00	-40.00	8128.00	8103.00
	34.00	28.00	-175.00	-54.00	8128.00	8103.00
	24.00	29.00	-66.00	-51.00	8128.00	8102.00
	20.00	17.00	1.00	-49.00	8127.00	8102.00
	10.00	12.00	-37.00	-47.00	8129.00	8103.00
	2.00	9.00	41.00	-9.00	8129.00	8103.00
	-5.00	0.00	56.00	26.00	8127.00	8102.00
	-6.00	1.00	5.00	12.00	8127.00	8103.00
	1.00	-1.00	17.00	-3.00	8128.00	8102.00
	9.00	-5.00	66.00	-26.00	8128.00	8103.00
	17.00	-6.00	57.00	-43.00	8127.00	8102.00
	23.00	3.00	-38.00	-52.00	8128.00	8102.00
	27.00	11.00	-121.00	-48.00	8128.00	8102.00
	38.00	17.00	-165.00	-45.00	8128.00	8103.00
	42.00	21.00	-156.00	-25.00	8127.00	8102.00
	35.00	10.00	17.00	-10.00	8128.00	8103.00
	23.00	1.00	228.00	0.00	8128.00	8103.00
	15.00	7.00	420.00	-29.00	8128.00	8103.00
	4.00	7.00	384.00	-20.00	8128.00	8103.00
	2.00	11.00	105.00	-2.00	8128.00	8103.00
	-10.00	1.00	-58.00	3.00	8128.00	8103.00
	-16.00	-8.00	-77.00	6.00	8127.00	8103.00
	-21.00	-20.00	-94.00	-7.00	8129.00	8104.00
	-15.00	-19.00	-107.00	-10.00	8128.00	8103.00
	-19.00	-24.00	-88.00	15.00	8127.00	8103.00
	-20.00	-19.00	-103.00	30.00	8127.00	8102.00
	-25.00	-12.00	-141.00	71.00	8128.00	8103.00
	-17.00	-4.00	-185.00	46.00	8127.00	8103.00
	-10.00	2.00	-224.00	29.00	8128.00	8104.00
	1.00	-1.00	-198.00	14.00	8128.00	8103.00
	18.00	-8.00	-174.00	54.00	8128.00	8104.00
	30.00	-10.00	-238.00	37.00	8128.00	8103.00
	29.00	-13.00	-200.00	5.00	8128.00	8103.00
	28.00	-6.00	-84.00	-42.00	8128.00	8104.00
	35.00	7.00	173.00	-59.00	8129.00	8104.00
	39.00	17.00	200.00	-82.00	8129.00	8104.00
	24.00	15.00	243.00	-75.00	8129.00	8104.00
	-19.00	9.00	337.00	-15.00	8129.00	8104.00
	-47.00	-4.00	256.00	55.00	8128.00	8104.00
	-54.00	18.00	190.00	30.00	8128.00	8103.00
	-55.00	2.00	84.00	80.00	8128.00	8104.00
	-58.00	-9.00	18.00	38.00	8128.00	8103.00
	-61.00	0.00	-14.00	-15.00	8129.00	8104.00
	-48.00	-3.00	-62.00	38.00	8128.00	8104.00
	-29.00	-7.00	-46.00	84.00	8129.00	8104.00
	-31.00	-32.00	-21.00	102.00	8128.00	8103.00
	-27.00	-24.00	-23.00	22.00	8128.00	8104.00
	-9.00	-5.00	-10.00	-15.00	8129.00	8104.00
	12.00	-1.00	-15.00	-5.00	8128.00	8103.00
	32.00	-4.00	-8.00	39.00	8128.00	8103.00
	34.00	-12.00	66.00	31.00	8128.00	8103.00
	34.00	-9.00	59.00	-29.00	8128.00	8103.00
	39.00	1.00	61.00	-83.00	8129.00	8103.00
	43.00	-2.00	99.00	-96.00	8129.00	8104.00
	30.00	-10.00	119.00	-85.00	8129.00	8104.00
	5.00	-4.00	78.00	-89.00	8128.00	8103.00
	-15.00	-1.00	-52.00	-58.00	8129.00	8103.00
	-21.00	10.00	-182.00	8.00	8128.00	8104.00
	-13.00	25.00	-260.00	49.00	8128.00	8104.00
	-16.00	9.00	-101.00	80.00	8128.00	8104.00
	-12.00	1.00	-78.00	38.00	8128.00	8103.00
	-10.00	5.00	-73.00	-4.00	8129.00	8104.00
	-9.00	10.00	-52.00	-25.00	8129.00	8104.00
	0.00	10.00	-62.00	-17.00	8129.00	8103.00
	5.00	9.00	-58.00	-2.00	8129.00	8104.00
	9.00	11.00	-63.00	10.00	8127.00	8103.00
	13.00	10.00	-65.00	0.00	8129.00	8103.00
	14.00	3.00	-76.00	-6.00	8129.00	8104.00
	17.00	-4.00	-55.00	-15.00	8128.00	8103.00
	13.00	-16.00	-3.00	-31.00	8129.00	8103.00
	10.00	-18.00	72.00	-47.00	8129.00	8103.00
	-2.00	-25.00	184.00	-21.00	8128.00	8103.00
	-13.00	-9.00	194.00	-28.00	8129.00	8103.00
	-18.00	0.00	152.00	-17.00	8129.00	8103.00
	-7.00	-5.00	118.00	-11.00	8128.00	8103.00
	8.00	-12.00	86.00	5.00	8128.00	8104.00
	15.00	2.00	-117.00	-1.00	8128.00	8103.00
	29.00	17.00	-311.00	-25.00	8128.00	8103.00
	46.00	25.00	-301.00	-45.00	8128.00	8103.00
	45.00	16.00	-192.00	-52.00	8129.00	8103.00
	35.00	11.00	-87.00	-20.00	8128.00	8103.00
	26.00	17.00	-127.00	-1.00	8128.00	8103.00
	14.00	12.00	65.00	40.00	8128.00	8103.00
	-7.00	8.00	242.00	84.00	8128.00	8103.00
	-20.00	-5.00	181.00	96.00	8129.00	8103.00
	-31.00	-5.00	332.00	43.00	8127.00	8103.00
	-33.00	1.00	309.00	-34.00	8128.00	8103.00
	-12.00	5.00	168.00	-51.00	8129.00	8103.00
	-19.00	-4.00	253.00	-41.00	8128.00	8103.00
	-29.00	-19.00	182.00	14.00	8128.00	8103.00
	-31.00	-20.00	59.00	58.00	8128.00	8103.00
	-29.00	-14.00	23.00	93.00	8127.00	8103.00
	-26.00	-33.00	56.00	96.00	8128.00	8103.00
	-29.00	-49.00	22.00	71.00	8128.00	8103.00
	-24.00	-44.00	-41.00	1.00	8128.00	8103.00
	-29.00	-33.00	-94.00	-10.00	8128.00	8103.00
	-20.00	-12.00	-115.00	-6.00	8128.00	8104.00
	2.00	0.00	-132.00	21.00	8128.00	8103.00
	3.00	6.00	-206.00	-19.00	8128.00	8103.00
	1.00	7.00	-183.00	-70.00	8128.00	8103.00
	5.00	13.00	-132.00	-122.00	8128.00	8103.00
	14.00	12.00	-32.00	-114.00	8128.00	8102.00
	25.00	17.00	10.00	-49.00	8127.00	8103.00
	38.00	18.00	120.00	19.00	8128.00	8103.00
	31.00	10.00	88.00	71.00	8128.00	8103.00
	16.00	17.00	-75.00	36.00	8127.00	8103.00
	2.00	24.00	-225.00	16.00	8128.00	8104.00
	-8.00	19.00	-122.00	31.00	8127.00	8103.00
	-8.00	5.00	-19.00	72.00	8127.00	8103.00
	-16.00	-16.00	-41.00	47.00	8128.00	8103.00
	-35.00	-22.00	-73.00	4.00	8127.00	8102.00
	-37.00	-31.00	-106.00	-25.00	8128.00	8103.00
	-19.00	-19.00	-157.00	-62.00	8128.00	8103.00
	5.00	-6.00	-153.00	-58.00	8128.00	8103.00
	22.00	2.00	-67.00	-42.00	8128.00	8103.00
	34.00	5.00	19.00	-61.00	8128.00	8103.00
	44.00	5.00	216.00	-75.00	8128.00	8103.00
	43.00	6.00	409.00	-31.00	8129.00	8103.00
	31.00	5.00	411.00	-8.00	8128.00	8103.00
	5.00	5.00	199.00	50.00	8127.00	8102.00
	-11.00	-4.00	-48.00	88.00	8128.00	8103.00
	-23.00	2.00	-220.00	83.00	8128.00	8103.00
	-36.00	6.00	-227.00	66.00	8127.00	8102.00
	-26.00	9.00	-170.00	42.00	8127.00	8103.00
	-21.00	5.00	-212.00	13.00	8127.00	8102.00
	-8.00	8.00	-207.00	-1.00	8128.00	8103.00
	3.00	-6.00	-138.00	2.00	8127.00	8103.00
	9.00	-9.00	-108.00	-7.00	8128.00	8103.00
	13.00	1.00	-66.00	-62.00	8128.00	8102.00
	7.00	3.00	-16.00	-77.00	8128.00	8103.00
	-3.00	-8.00	209.00	-38.00	8128.00	8103.00
	-10.00	-9.00	372.00	12.00	8127.00	8103.00
	-18.00	-9.00	240.00	47.00	8128.00	8103.00
	-20.00	-15.00	119.00	84.00	8128.00	8103.00
	-23.00	-24.00	74.00	62.00	8128.00	8103.00
	-20.00	-18.00	54.00	-5.00	8128.00	8103.00
	-15.00	-8.00	58.00	-52.00	8128.00	8103.00
	2.00	-2.00	64.00	-22.00	8129.00	8103.00
	10.00	-4.00	37.00	-13.00	8129.00	8103.00
	17.00	0.00	38.00	-27.00	8128.00	8103.00
	35.00	10.00	83.00	-31.00	8128.00	8103.00
	49.00	22.00	44.00	-39.00	8128.00	8103.00
	53.00	26.00	-48.00	-50.00	8128.00	8103.00
	44.00	27.00	-40.00	-65.00	8129.00	8103.00
	23.00	26.00	5.00	-51.00	8129.00	8103.00
	0.00	15.00	-26.00	8.00	8128.00	8104.00
	-19.00	8.00	-203.00	40.00	8129.00	8104.00
	-35.00	-13.00	-188.00	38.00	8128.00	8103.00
	-43.00	-23.00	-196.00	-36.00	8128.00	8103.00
	-35.00	-30.00	-160.00	-78.00	8129.00	8104.00
	-17.00	-19.00	-126.00	-60.00	8129.00	8104.00
	6.00	-3.00	2.00	-32.00	8128.00	8103.00
	8.00	-6.00	81.00	20.00	8129.00	8104.00
	11.00	-12.00	13.00	24.00	8127.00	8103.00
	-3.00	-22.00	4.00	67.00	8128.00	8103.00
	-19.00	-21.00	-29.00	51.00	8128.00	8103.00
	-20.00	-14.00	-95.00	31.00	8127.00	8103.00
	-28.00	-11.00	-107.00	22.00	8128.00	8104.00
	-28.00	-9.00	59.00	15.00	8128.00	8104.00
	-28.00	-13.00	225.00	9.00	8127.00	8103.00
	-10.00	0.00	272.00	15.00	8127.00	8103.00
	8.00	8.00	142.00	40.00	8128.00	8104.00
	15.00	18.00	-11.00	21.00	8128.00	8103.00
	24.00	24.00	-81.00	-30.00	8129.00	8104.00
	29.00	24.00	-96.00	-45.00	8129.00	8103.00
	19.00	17.00	-90.00	-39.00	8128.00	8103.00
	8.00	11.00	-9.00	-1.00	8128.00	8103.00
	1.00	2.00	169.00	48.00	8128.00	8104.00
	-3.00	-4.00	184.00	83.00	8128.00	8103.00
	-12.00	-14.00	21.00	68.00	8128.00	8104.00
	-10.00	-15.00	-22.00	51.00	8128.00	8103.00
	-15.00	-13.00	-23.00	-27.00	8129.00	8103.00
	-15.00	-6.00	-55.00	-52.00	8128.00	8103.00
	-10.00	-5.00	-145.00	-39.00	8128.00	8103.00
	0.00	-1.00	-153.00	-29.00	8129.00	8103.00
	7.00	-4.00	-132.00	-34.00	8129.00	8103.00
	3.00	7.00	-91.00	-47.00	8129.00	8104.00
	14.00	7.00	-25.00	-24.00	8128.00	8103.00
	23.00	3.00	85.00	-12.00	8128.00	8103.00
	15.00	5.00	259.00	-29.00	8129.00	8103.00
	6.00	7.00	329.00	-27.00	8129.00	8103.00
	-5.00	2.00	234.00	11.00	8128.00	8104.00
	-23.00	-2.00	155.00	60.00	8128.00	8104.00
	-25.00	-4.00	201.00	63.00	8128.00	8103.00
	-32.00	4.00	242.00	9.00	8128.00	8103.00
	-12.00	12.00	116.00	-4.00	8129.00	8103.00
	16.00	7.00	-57.00	-39.00	8129.00	8104.00
	41.00	12.00	-210.00	-92.00	8129.00	8104.00
	54.00	21.00	-295.00	-137.00	8129.00	8103.00
	54.00	18.00	-363.00	-127.00	8128.00	8103.00
	36.00	15.00	-328.00	-80.00	8128.00	8103.00
	10.00	-8.00	-142.00	23.00	8127.00	8103.00
	-32.00	-37.00	-19.00	120.00	8128.00	8103.00
	-57.00	-41.00	11.00	148.00	8128.00	8103.00
	-70.00	-44.00	-32.00	165.00	8128.00	8103.00
	-68.00	-51.00	-40.00	151.00	8128.00	8103.00
	-60.00	-46.00	-81.00	94.00	8128.00	8103.00
	-39.00	-25.00	-26.00	37.00	8128.00	8103.00
	-18.00	-10.00	40.00	10.00	8128.00	8103.00
	4.00	1.00	37.00	-17.00	8128.00	8103.00
	27.00	16.00	39.00	-68.00	8128.00	8103.00
	46.00	27.00	62.00	-137.00	8128.00	8103.00
	44.00	33.00	100.00	-147.00	8128.00	8103.00
	37.00	33.00	38.00	-109.00	8129.00	8104.00
	23.00	25.00	7.00	-41.00	8128.00	8103.00
	12.00	19.00	52.00	63.00	8129.00	8104.00
	-7.00	3.00	140.00	129.00	8128.00	8103.00
	-20.00	-15.00	80.00	121.00	8128.00	8103.00
	-17.00	-15.00	-22.00	12.00	8128.00	8103.00
	4.00	-9.00	-62.00	-27.00	8129.00	8104.00
	19.00	-6.00	-70.00	-35.00	8128.00	8103.00
	24.00	-4.00	-133.00	-39.00	8128.00	8103.00
	16.00	-7.00	-197.00	-23.00	8128.00	8103.00
	11.00	-20.00	-118.00	24.00	8128.00	8103.00
	0.00	-27.00	38.00	58.00	8127.00	8102.00
	-7.00	-13.00	75.00	42.00	8127.00	8102.00
	-16.00	-1.00	-75.00	2.00	8127.00	8102.00
	-16.00	-2.00	-41.00	2.00	8127.00	8103.00
	-14.00	8.00	-4.00	-23.00	8128.00	8102.00
	-16.00	14.00	39.00	-36.00	8128.00	8102.00
	-19.00	12.00	43.00	-6.00	8127.00	8102.00
	-15.00	12.00	38.00	9.00	8127.00	8102.00
	-19.00	6.00	17.00	-11.00	8128.00	8103.00
	-10.00	9.00	-33.00	-42.00	8128.00	8103.00
	6.00	11.00	-46.00	-47.00	8128.00	8103.00
	17.00	13.00	-49.00	-62.00	8128.00	8103.00
	17.00	10.00	-36.00	-61.00	8128.00	8103.00
	16.00	-2.00	38.00	-28.00	8128.00	8103.00
	13.00	-12.00	155.00	15.00	8127.00	8102.00
	13.00	-14.00	169.00	35.00	8127.00	8103.00
	11.00	-7.00	98.00	8.00	8128.00	8104.00
	17.00	-5.00	-52.00	-16.00	8129.00	8104.00
	7.00	-8.00	-48.00	-46.00	8129.00	8104.00
	2.00	-11.00	43.00	-33.00	8128.00	8103.00
	2.00	-7.00	-35.00	-19.00	8128.00	8103.00
	3.00	-2.00	-43.00	-9.00	8129.00	8103.00
	9.00	-3.00	-9.00	-3.00	8128.00	8103.00
	15.00	4.00	-19.00	-35.00	8129.00	8104.00
	18.00	14.00	3.00	-66.00	8129.00	8104.00
	10.00	13.00	190.00	-49.00	8128.00	8103.00
	0.00	12.00	260.00	-5.00	8128.00	8102.00
	-19.00	7.00	312.00	51.00	8128.00	8103.00
	-21.00	11.00	206.00	93.00	8128.00	8104.00
	-21.00	1.00	18.00	127.00	8128.00	8103.00
	-18.00	0.00	-100.00	97.00	8128.00	8103.00
	-21.00	0.00	-137.00	93.00	8129.00	8104.00
	-17.00	-4.00	-129.00	96.00	8128.00	8103.00
	-7.00	-6.00	-201.00	52.00	8128.00	8104.00
	-2.00	-19.00	-245.00	34.00	8128.00	8104.00
	-15.00	-32.00	-238.00	-7.00	8128.00	8102.00
	-35.00	-37.00	-154.00	-34.00	8129.00	8104.00
	-44.00	-39.00	-48.00	-24.00	8128.00	8103.00
	-33.00	-22.00	70.00	-63.00	8129.00	8104.00
	-17.00	-17.00	147.00	-76.00	8128.00	8103.00
	-6.00	-10.00	165.00	-70.00	8128.00	8103.00
	6.00	-5.00	142.00	-39.00	8128.00	8103.00
	5.00	1.00	51.00	3.00	8128.00	8104.00
	3.00	16.00	-13.00	25.00	8128.00	8103.00
	2.00	15.00	-136.00	53.00	8128.00	8103.00
	7.00	20.00	-246.00	-10.00	8130.00	8104.00
	29.00	31.00	-254.00	-70.00	8129.00	8103.00
	52.00	34.00	-223.00	-100.00	8128.00	8103.00
	72.00	36.00	-222.00	-130.00	8129.00	8103.00
	63.00	27.00	-8.00	-107.00	8128.00	8103.00
	42.00	-1.00	309.00	-13.00	8129.00	8104.00
	10.00	3.00	288.00	17.00	8128.00	8104.00
	-25.00	9.00	206.00	90.00	8128.00	8104.00
	-50.00	-4.00	188.00	81.00	8128.00	8103.00
	-53.00	-15.00	126.00	54.00	8128.00	8103.00
	-46.00	-18.00	33.00	25.00	8127.00	8103.00
	-21.00	-21.00	-24.00	39.00	8128.00	8103.00
	-14.00	-33.00	-59.00	70.00	8128.00	8103.00
	-2.00	-30.00	-146.00	50.00	8129.00	8104.00
	4.00	-13.00	-199.00	-12.00	8128.00	8104.00
	16.00	-7.00	-216.00	-31.00	8129.00	8103.00
	33.00	0.00	-209.00	-39.00	8128.00	8103.00
	38.00	7.00	-181.00	-47.00	8129.00	8103.00
	29.00	5.00	-36.00	-47.00	8129.00	8103.00
	9.00	-1.00	172.00	-56.00	8128.00	8102.00
	-13.00	11.00	188.00	-88.00	8128.00	8102.00
	-23.00	8.00	319.00	-9.00	8128.00	8103.00
	-21.00	2.00	218.00	101.00	8128.00	8103.00
	-22.00	16.00	146.00	96.00	8128.00	8103.00
	-12.00	7.00	21.00	67.00	8128.00	8103.00
	-7.00	-7.00	-57.00	40.00	8128.00	8103.00
	-4.00	-14.00	-67.00	-4.00	8128.00	8103.00
	-8.00	-16.00	-85.00	-17.00	8129.00	8104.00
	-3.00	-6.00	-132.00	-38.00	8128.00	8102.00
	9.00	-3.00	-95.00	-7.00	8128.00	8102.00
	3.00	-2.00	-51.00	-17.00	8129.00	8103.00
	-10.00	-3.00	52.00	-7.00	8128.00	8103.00
	-18.00	5.00	221.00	41.00	8127.00	8103.00
	-7.00	-4.00	303.00	91.00	8127.00	8103.00
	-3.00	-19.00	212.00	114.00	8129.00	8104.00
	-8.00	-24.00	116.00	49.00	8128.00	8103.00
	-11.00	-14.00	18.00	0.00	8129.00	8103.00
	-20.00	-2.00	-57.00	-47.00	8128.00	8103.00
	-5.00	12.00	-103.00	-50.00	8128.00	8103.00
	8.00	13.00	-167.00	-37.00	8128.00	8103.00
	7.00	3.00	-107.00	-30.00	8128.00	8103.00
	3.00	-2.00	-127.00	-40.00	8128.00	8103.00
	5.00	-2.00	-108.00	-70.00	8129.00	8104.00
	1.00	-2.00	-66.00	-78.00	8128.00	8102.00
	8.00	1.00	-17.00	-79.00	8127.00	8102.00
	5.00	8.00	23.00	-55.00	8127.00	8102.00
	8.00	4.00	2.00	-19.00	8128.00	8102.00
	5.00	0.00	22.00	16.00	8127.00	8102.00
	0.00	-3.00	-91.00	59.00	8128.00	8102.00
	2.00	-8.00	-153.00	64.00	8128.00	8103.00
