MegaWin ASCII file

[DEFINITIONS]
ChannelCount=8
DataType=1
SamplingFreq=1000.000000
FirstSampleTime=0.001000
PhaseName=Raw Free 15/12/2017 10:48:50


[COMMENT]



[SOURCE NAMES]
Quadriceps femoris muscle - rectus femoris
Quadriceps femoris muscle - rectus femoris
Quadriceps femoris muscle - rectus femoris
Quadriceps femoris muscle - rectus femoris
Quadriceps femoris muscle - vastus lateralis
Quadriceps femoris muscle - vastus lateralis


[SIDE INFO]
R
R
R
R
R
R


[UNITS]
uV
uV
uV
uV
uV
uV






[DATA]
	25.00	-30.00	-2.00	-6.00	8140.00	8115.00
	19.00	-35.00	2.00	-3.00	8139.00	8114.00
	14.00	-35.00	3.00	4.00	8137.00	8112.00
	13.00	-42.00	7.00	17.00	8137.00	8112.00
	9.00	-47.00	11.00	37.00	8135.00	8110.00
	0.00	-35.00	8.00	42.00	8134.00	8109.00
	-14.00	-19.00	4.00	34.00	8134.00	8109.00
	-20.00	-3.00	3.00	15.00	8133.00	8108.00
	-14.00	3.00	-2.00	3.00	8133.00	8108.00
	-7.00	6.00	1.00	-1.00	8133.00	8107.00
	-2.00	5.00	6.00	-3.00	8134.00	8108.00
	11.00	-1.00	8.00	1.00	8133.00	8108.00
	19.00	3.00	3.00	4.00	8132.00	8108.00
	16.00	16.00	1.00	-3.00	8131.00	8106.00
	11.00	23.00	-5.00	-6.00	8133.00	8107.00
	3.00	19.00	-8.00	-4.00	8132.00	8107.00
	5.00	15.00	-8.00	-2.00	8131.00	8106.00
	-3.00	12.00	-12.00	-4.00	8131.00	8106.00
	-17.00	9.00	-13.00	-8.00	8131.00	8106.00
	-17.00	5.00	-16.00	-11.00	8132.00	8106.00
	-18.00	-9.00	-10.00	-6.00	8131.00	8105.00
	-7.00	-34.00	-12.00	1.00	8130.00	8106.00
	3.00	-49.00	-16.00	-4.00	8131.00	8105.00
	18.00	-49.00	-13.00	-2.00	8131.00	8106.00
	20.00	-43.00	-6.00	1.00	8129.00	8105.00
	4.00	-30.00	-7.00	5.00	8130.00	8105.00
	-10.00	-10.00	-4.00	-5.00	8130.00	8105.00
	-12.00	3.00	-3.00	-5.00	8129.00	8104.00
	-10.00	20.00	-5.00	-9.00	8129.00	8104.00
	-8.00	26.00	-6.00	-4.00	8130.00	8104.00
	1.00	22.00	-2.00	-8.00	8130.00	8105.00
	-4.00	31.00	4.00	-14.00	8130.00	8104.00
	-18.00	29.00	3.00	-9.00	8129.00	8104.00
	-27.00	25.00	20.00	2.00	8129.00	8105.00
	-15.00	39.00	19.00	-6.00	8128.00	8103.00
	2.00	61.00	11.00	-13.00	8130.00	8105.00
	-3.00	67.00	2.00	-8.00	8128.00	8103.00
	6.00	29.00	-2.00	3.00	8127.00	8103.00
	2.00	-13.00	0.00	8.00	8127.00	8103.00
	-6.00	-41.00	9.00	6.00	8129.00	8104.00
	-16.00	-58.00	20.00	10.00	8128.00	8103.00
	7.00	-65.00	13.00	12.00	8128.00	8103.00
	18.00	-57.00	5.00	-1.00	8129.00	8103.00
	46.00	-31.00	-5.00	-13.00	8128.00	8102.00
	52.00	-8.00	-10.00	-17.00	8128.00	8103.00
	23.00	8.00	-18.00	-16.00	8128.00	8102.00
	8.00	22.00	-24.00	-13.00	8129.00	8103.00
	-3.00	33.00	-29.00	-3.00	8128.00	8103.00
	-19.00	29.00	-22.00	10.00	8126.00	8101.00
	-29.00	30.00	-6.00	18.00	8127.00	8103.00
	-34.00	32.00	4.00	15.00	8126.00	8102.00
	-38.00	18.00	14.00	20.00	8127.00	8102.00
	-82.00	1.00	13.00	5.00	8127.00	8102.00
	-80.00	-10.00	16.00	0.00	8128.00	8102.00
	-36.00	-26.00	8.00	-9.00	8127.00	8102.00
	8.00	-7.00	-4.00	-27.00	8128.00	8103.00
	17.00	-20.00	-9.00	-20.00	8128.00	8102.00
	20.00	-24.00	-15.00	-8.00	8127.00	8102.00
	32.00	-15.00	-13.00	4.00	8127.00	8102.00
	24.00	-5.00	-9.00	1.00	8127.00	8102.00
	18.00	-2.00	-4.00	-1.00	8127.00	8102.00
	22.00	-9.00	8.00	11.00	8127.00	8102.00
	20.00	-22.00	34.00	11.00	8127.00	8102.00
	5.00	-24.00	15.00	2.00	8127.00	8103.00
	-6.00	-30.00	0.00	14.00	8127.00	8102.00
	-20.00	-30.00	0.00	0.00	8128.00	8102.00
	-13.00	-14.00	3.00	-21.00	8128.00	8103.00
	-8.00	-13.00	1.00	-23.00	8128.00	8102.00
	4.00	-22.00	6.00	-10.00	8129.00	8104.00
	-3.00	-26.00	21.00	-3.00	8128.00	8103.00
	4.00	-19.00	20.00	3.00	8128.00	8104.00
	5.00	-6.00	14.00	3.00	8128.00	8103.00
	16.00	4.00	7.00	3.00	8128.00	8103.00
	18.00	8.00	4.00	4.00	8128.00	8104.00
	20.00	18.00	-2.00	-4.00	8129.00	8104.00
	34.00	25.00	-7.00	-10.00	8129.00	8103.00
	45.00	24.00	-14.00	-5.00	8128.00	8103.00
	39.00	11.00	-16.00	4.00	8128.00	8103.00
	14.00	9.00	-10.00	1.00	8128.00	8103.00
	-8.00	-1.00	-11.00	-6.00	8129.00	8104.00
	-21.00	-11.00	-13.00	-6.00	8129.00	8104.00
	-22.00	-19.00	-16.00	4.00	8128.00	8104.00
	-11.00	-21.00	-13.00	0.00	8129.00	8103.00
	-17.00	-14.00	-13.00	-3.00	8129.00	8104.00
	-23.00	-6.00	-14.00	-2.00	8128.00	8103.00
	-20.00	-6.00	-7.00	0.00	8128.00	8103.00
	-25.00	-2.00	0.00	-3.00	8129.00	8103.00
	-36.00	5.00	-3.00	-10.00	8128.00	8103.00
	-24.00	0.00	-10.00	-14.00	8129.00	8104.00
	-10.00	-1.00	-13.00	-21.00	8128.00	8103.00
	-5.00	-1.00	-13.00	-21.00	8128.00	8103.00
	1.00	-6.00	-16.00	-21.00	8128.00	8103.00
	6.00	12.00	-13.00	-22.00	8128.00	8103.00
	0.00	22.00	-6.00	-11.00	8128.00	8104.00
	-7.00	36.00	5.00	-13.00	8128.00	8103.00
	-3.00	46.00	5.00	-1.00	8128.00	8103.00
	-6.00	33.00	13.00	21.00	8128.00	8104.00
	-13.00	12.00	21.00	37.00	8129.00	8104.00
	-5.00	-7.00	24.00	59.00	8128.00	8103.00
	10.00	-32.00	18.00	35.00	8128.00	8103.00
	14.00	-47.00	6.00	8.00	8127.00	8102.00
	16.00	-43.00	5.00	-8.00	8129.00	8103.00
	15.00	-30.00	4.00	-16.00	8129.00	8104.00
	9.00	-22.00	2.00	-11.00	8129.00	8104.00
	10.00	3.00	-6.00	-9.00	8129.00	8104.00
	10.00	26.00	-10.00	-9.00	8129.00	8103.00
	12.00	24.00	-17.00	-1.00	8129.00	8104.00
	19.00	10.00	-17.00	19.00	8129.00	8104.00
	6.00	11.00	-13.00	20.00	8128.00	8103.00
	-19.00	19.00	-8.00	9.00	8128.00	8103.00
	-28.00	30.00	-4.00	-2.00	8128.00	8103.00
	-32.00	40.00	-3.00	-12.00	8129.00	8103.00
	-29.00	44.00	-4.00	-18.00	8129.00	8104.00
	-25.00	30.00	-5.00	-23.00	8128.00	8102.00
	-26.00	8.00	-7.00	-26.00	8128.00	8102.00
	-20.00	-4.00	6.00	-22.00	8128.00	8103.00
	-10.00	-17.00	10.00	-11.00	8129.00	8103.00
	4.00	-27.00	7.00	3.00	8128.00	8104.00
	3.00	-25.00	4.00	4.00	8128.00	8103.00
	3.00	-36.00	5.00	9.00	8129.00	8105.00
	-7.00	-32.00	-3.00	11.00	8128.00	8104.00
	3.00	-13.00	-8.00	8.00	8128.00	8103.00
	5.00	-5.00	5.00	4.00	8128.00	8103.00
	11.00	-2.00	25.00	-2.00	8129.00	8104.00
	36.00	9.00	10.00	-3.00	8129.00	8103.00
	37.00	3.00	4.00	9.00	8128.00	8104.00
	17.00	-17.00	3.00	18.00	8128.00	8104.00
	19.00	-9.00	4.00	-1.00	8128.00	8103.00
	8.00	-10.00	9.00	-5.00	8129.00	8103.00
	-4.00	-15.00	13.00	-5.00	8128.00	8103.00
	-12.00	-7.00	3.00	-6.00	8129.00	8104.00
	1.00	-7.00	-6.00	-1.00	8129.00	8104.00
	1.00	-2.00	-7.00	5.00	8128.00	8103.00
	-10.00	8.00	-7.00	-6.00	8129.00	8103.00
	-3.00	12.00	-7.00	-14.00	8129.00	8104.00
	5.00	19.00	-6.00	-9.00	8128.00	8103.00
	5.00	1.00	-8.00	1.00	8128.00	8103.00
	0.00	-18.00	-14.00	6.00	8128.00	8103.00
	-5.00	-12.00	-22.00	-2.00	8129.00	8104.00
	5.00	-11.00	-16.00	-5.00	8129.00	8103.00
	4.00	-32.00	-7.00	9.00	8128.00	8103.00
	5.00	-42.00	-17.00	18.00	8128.00	8104.00
	6.00	-34.00	-24.00	13.00	8128.00	8103.00
	-9.00	-31.00	-10.00	12.00	8129.00	8105.00
	-7.00	-27.00	5.00	4.00	8128.00	8104.00
	7.00	-18.00	6.00	-4.00	8129.00	8104.00
	17.00	-14.00	-2.00	3.00	8127.00	8103.00
	14.00	-4.00	0.00	-1.00	8129.00	8104.00
	-5.00	9.00	7.00	-17.00	8129.00	8103.00
	-18.00	22.00	10.00	-26.00	8128.00	8103.00
	-16.00	35.00	15.00	-30.00	8129.00	8104.00
	-22.00	7.00	14.00	-13.00	8129.00	8103.00
	-14.00	-2.00	10.00	-1.00	8129.00	8104.00
	6.00	-13.00	13.00	8.00	8128.00	8104.00
	10.00	-6.00	10.00	-2.00	8129.00	8103.00
	-4.00	13.00	11.00	-5.00	8128.00	8103.00
	-19.00	22.00	7.00	-17.00	8128.00	8104.00
	-17.00	30.00	0.00	-29.00	8130.00	8104.00
	-13.00	32.00	-8.00	-31.00	8128.00	8103.00
	-4.00	32.00	-4.00	-25.00	8128.00	8103.00
	-2.00	27.00	4.00	-18.00	8129.00	8103.00
	10.00	22.00	2.00	-13.00	8128.00	8103.00
	12.00	-3.00	-4.00	4.00	8128.00	8104.00
	3.00	-29.00	-8.00	32.00	8129.00	8104.00
	-12.00	-38.00	-5.00	39.00	8129.00	8104.00
	-13.00	-45.00	0.00	41.00	8129.00	8104.00
	-5.00	-43.00	0.00	43.00	8128.00	8104.00
	-7.00	-13.00	4.00	29.00	8128.00	8104.00
	-10.00	0.00	3.00	13.00	8127.00	8103.00
	0.00	15.00	2.00	8.00	8128.00	8103.00
	10.00	43.00	3.00	-15.00	8128.00	8103.00
	-3.00	50.00	-5.00	-20.00	8129.00	8104.00
	-4.00	49.00	-11.00	-21.00	8129.00	8104.00
	-14.00	31.00	-11.00	-14.00	8128.00	8103.00
	-17.00	17.00	-4.00	-12.00	8128.00	8103.00
	-22.00	-1.00	9.00	-9.00	8128.00	8103.00
	-30.00	-20.00	1.00	-11.00	8128.00	8103.00
	-31.00	-25.00	-2.00	-8.00	8128.00	8103.00
	-35.00	-14.00	0.00	-17.00	8127.00	8102.00
	-35.00	-1.00	2.00	-17.00	8128.00	8103.00
	-14.00	11.00	-6.00	-4.00	8128.00	8103.00
	11.00	23.00	-11.00	10.00	8127.00	8103.00
	20.00	7.00	-13.00	17.00	8127.00	8103.00
	32.00	-10.00	-4.00	14.00	8127.00	8103.00
	33.00	-26.00	7.00	18.00	8128.00	8103.00
	28.00	-36.00	1.00	8.00	8128.00	8103.00
	15.00	-34.00	-5.00	-4.00	8127.00	8103.00
	5.00	-20.00	-5.00	-3.00	8128.00	8103.00
	0.00	1.00	-8.00	-9.00	8128.00	8103.00
	7.00	16.00	-9.00	-13.00	8128.00	8103.00
	14.00	17.00	-4.00	6.00	8127.00	8103.00
	13.00	25.00	5.00	-10.00	8129.00	8103.00
	2.00	24.00	1.00	-7.00	8128.00	8103.00
	-8.00	15.00	1.00	-9.00	8127.00	8102.00
	-2.00	12.00	1.00	-16.00	8129.00	8104.00
	17.00	0.00	-3.00	-10.00	8128.00	8103.00
	24.00	-29.00	-2.00	-3.00	8128.00	8102.00
	26.00	-34.00	0.00	3.00	8127.00	8102.00
	19.00	-51.00	0.00	18.00	8127.00	8103.00
	22.00	-51.00	-4.00	23.00	8128.00	8104.00
	-4.00	-33.00	-8.00	14.00	8128.00	8103.00
	-36.00	-18.00	-5.00	2.00	8128.00	8103.00
	9.00	-7.00	-5.00	-2.00	8128.00	8103.00
	35.00	0.00	-6.00	-6.00	8129.00	8103.00
	31.00	-5.00	-8.00	-6.00	8128.00	8103.00
	20.00	-6.00	-11.00	-3.00	8129.00	8104.00
	22.00	-5.00	-9.00	-3.00	8128.00	8103.00
	40.00	4.00	0.00	-6.00	8128.00	8103.00
	51.00	2.00	3.00	2.00	8128.00	8103.00
	17.00	-8.00	9.00	7.00	8128.00	8103.00
	-3.00	-18.00	13.00	15.00	8127.00	8103.00
	-21.00	-29.00	11.00	26.00	8128.00	8103.00
	-39.00	-19.00	3.00	21.00	8127.00	8103.00
	-55.00	0.00	-5.00	4.00	8128.00	8103.00
	-70.00	7.00	-2.00	-9.00	8128.00	8103.00
	-56.00	10.00	6.00	-10.00	8129.00	8103.00
	-47.00	15.00	3.00	-17.00	8129.00	8104.00
	-35.00	12.00	1.00	-22.00	8128.00	8103.00
	-19.00	12.00	4.00	-30.00	8128.00	8103.00
	-5.00	5.00	3.00	-28.00	8128.00	8103.00
	-2.00	1.00	8.00	-21.00	8129.00	8104.00
	1.00	-6.00	7.00	-12.00	8128.00	8103.00
	1.00	-29.00	-6.00	-7.00	8128.00	8102.00
	6.00	-47.00	-20.00	-12.00	8128.00	8103.00
	29.00	-53.00	-22.00	-8.00	8129.00	8104.00
	39.00	-43.00	-21.00	-5.00	8129.00	8104.00
	33.00	-19.00	-25.00	-2.00	8128.00	8103.00
	22.00	6.00	-23.00	7.00	8128.00	8103.00
	14.00	40.00	-18.00	7.00	8127.00	8103.00
	10.00	53.00	-13.00	18.00	8128.00	8103.00
	24.00	52.00	-8.00	38.00	8128.00	8103.00
	6.00	63.00	33.00	35.00	8128.00	8103.00
	-34.00	52.00	67.00	27.00	8129.00	8104.00
	-54.00	53.00	53.00	7.00	8128.00	8103.00
	-72.00	53.00	27.00	-13.00	8129.00	8104.00
	-65.00	42.00	11.00	-26.00	8128.00	8103.00
	-57.00	31.00	-6.00	-29.00	8129.00	8103.00
	-33.00	21.00	-13.00	-28.00	8129.00	8104.00
	-18.00	7.00	-13.00	-22.00	8129.00	8104.00
	-17.00	-6.00	-16.00	-24.00	8128.00	8103.00
	2.00	-12.00	-18.00	-22.00	8128.00	8103.00
	27.00	-22.00	-14.00	-15.00	8128.00	8103.00
	40.00	-30.00	10.00	-7.00	8129.00	8103.00
	50.00	-39.00	40.00	8.00	8128.00	8103.00
	37.00	-50.00	19.00	14.00	8128.00	8104.00
	27.00	-49.00	17.00	11.00	8128.00	8104.00
	16.00	-48.00	9.00	15.00	8127.00	8103.00
	5.00	-42.00	-2.00	18.00	8128.00	8103.00
	-6.00	-25.00	-12.00	15.00	8128.00	8103.00
	-13.00	-14.00	-11.00	11.00	8129.00	8104.00
	-21.00	-7.00	-6.00	2.00	8127.00	8103.00
	-24.00	7.00	-4.00	4.00	8128.00	8103.00
	-19.00	13.00	-7.00	11.00	8128.00	8104.00
	-25.00	12.00	-12.00	11.00	8128.00	8103.00
	-28.00	18.00	-9.00	5.00	8128.00	8103.00
	-5.00	22.00	-15.00	-2.00	8128.00	8103.00
	4.00	21.00	-14.00	-3.00	8129.00	8104.00
	6.00	11.00	-15.00	-7.00	8128.00	8103.00
	14.00	3.00	-9.00	-4.00	8129.00	8104.00
	15.00	6.00	-7.00	-12.00	8128.00	8103.00
	11.00	11.00	-7.00	-18.00	8129.00	8104.00
	17.00	10.00	-2.00	-10.00	8129.00	8104.00
	32.00	16.00	-5.00	-5.00	8128.00	8104.00
	41.00	13.00	-2.00	-10.00	8129.00	8104.00
	37.00	-21.00	0.00	-6.00	8129.00	8103.00
	40.00	-27.00	0.00	-5.00	8129.00	8103.00
	31.00	-13.00	-3.00	-18.00	8129.00	8103.00
	27.00	-7.00	-11.00	-23.00	8129.00	8104.00
	9.00	-8.00	-3.00	-7.00	8128.00	8103.00
	-12.00	-12.00	-2.00	20.00	8128.00	8104.00
	-30.00	-11.00	-2.00	25.00	8128.00	8103.00
	-36.00	-2.00	-6.00	22.00	8129.00	8104.00
	-30.00	9.00	-8.00	11.00	8128.00	8103.00
	-31.00	12.00	-3.00	7.00	8128.00	8104.00
	-16.00	7.00	1.00	2.00	8128.00	8103.00
	-5.00	1.00	5.00	-13.00	8128.00	8103.00
	28.00	-14.00	5.00	-15.00	8128.00	8103.00
	22.00	-23.00	3.00	-10.00	8129.00	8104.00
	18.00	-32.00	5.00	-2.00	8128.00	8103.00
	24.00	-27.00	3.00	-6.00	8128.00	8103.00
	36.00	-27.00	-3.00	2.00	8128.00	8103.00
	36.00	-44.00	-6.00	13.00	8128.00	8104.00
	24.00	-50.00	-9.00	15.00	8128.00	8103.00
	20.00	-54.00	-7.00	22.00	8128.00	8104.00
	1.00	-45.00	-9.00	22.00	8128.00	8104.00
	-12.00	-35.00	-6.00	24.00	8128.00	8104.00
	-20.00	-18.00	-6.00	31.00	8128.00	8103.00
	-33.00	9.00	0.00	19.00	8128.00	8103.00
	-40.00	40.00	7.00	-3.00	8129.00	8104.00
	-43.00	49.00	16.00	-9.00	8129.00	8104.00
	-57.00	69.00	27.00	-29.00	8129.00	8104.00
	-59.00	73.00	30.00	-40.00	8128.00	8104.00
	-49.00	48.00	27.00	-29.00	8129.00	8104.00
	-30.00	25.00	15.00	-19.00	8130.00	8104.00
	-9.00	5.00	8.00	-15.00	8129.00	8104.00
	5.00	-2.00	3.00	-13.00	8129.00	8104.00
	2.00	-1.00	-6.00	-15.00	8129.00	8103.00
	10.00	2.00	-11.00	-17.00	8129.00	8103.00
	13.00	-8.00	-9.00	1.00	8129.00	8104.00
	0.00	-6.00	-8.00	6.00	8128.00	8103.00
	-8.00	8.00	-10.00	-3.00	8129.00	8104.00
	-2.00	28.00	-13.00	0.00	8129.00	8104.00
	11.00	18.00	-18.00	1.00	8129.00	8104.00
	11.00	4.00	-13.00	-1.00	8128.00	8103.00
	10.00	-14.00	-11.00	5.00	8128.00	8104.00
	15.00	-24.00	-11.00	7.00	8128.00	8104.00
	13.00	-16.00	4.00	0.00	8129.00	8104.00
	13.00	-18.00	11.00	1.00	8128.00	8103.00
	-4.00	-18.00	5.00	1.00	8129.00	8104.00
	-6.00	-8.00	5.00	-1.00	8128.00	8103.00
	-3.00	-2.00	4.00	-2.00	8129.00	8103.00
	-3.00	3.00	2.00	-1.00	8129.00	8104.00
	5.00	3.00	-2.00	-1.00	8129.00	8104.00
	4.00	8.00	-7.00	-1.00	8129.00	8103.00
	-6.00	10.00	-10.00	-4.00	8128.00	8103.00
	3.00	12.00	-11.00	-7.00	8129.00	8103.00
	8.00	9.00	-12.00	-4.00	8129.00	8104.00
	11.00	4.00	-9.00	-3.00	8129.00	8104.00
	14.00	5.00	-7.00	-5.00	8128.00	8104.00
	17.00	0.00	-4.00	-7.00	8129.00	8103.00
	17.00	0.00	-6.00	-1.00	8129.00	8104.00
	17.00	-5.00	-5.00	7.00	8128.00	8104.00
	4.00	-20.00	-4.00	13.00	8128.00	8104.00
	-9.00	-22.00	8.00	4.00	8127.00	8103.00
	-17.00	-25.00	13.00	0.00	8129.00	8103.00
	-25.00	-38.00	12.00	3.00	8127.00	8103.00
	-34.00	-30.00	12.00	1.00	8128.00	8104.00
	-25.00	-24.00	11.00	4.00	8128.00	8104.00
	-8.00	-23.00	7.00	12.00	8128.00	8104.00
	-42.00	-24.00	7.00	12.00	8128.00	8104.00
	-54.00	-15.00	10.00	-3.00	8128.00	8103.00
	-35.00	8.00	11.00	-15.00	8128.00	8103.00
	-2.00	24.00	5.00	-16.00	8129.00	8104.00
	22.00	26.00	3.00	-12.00	8129.00	8104.00
	26.00	35.00	0.00	-13.00	8128.00	8103.00
	45.00	30.00	-11.00	-8.00	8129.00	8103.00
	39.00	34.00	-16.00	-17.00	8129.00	8103.00
	39.00	37.00	-14.00	-13.00	8129.00	8104.00
	37.00	28.00	-17.00	-8.00	8130.00	8104.00
	55.00	23.00	-20.00	-10.00	8129.00	8104.00
	65.00	21.00	-19.00	-8.00	8130.00	8104.00
	46.00	5.00	-14.00	-6.00	8129.00	8104.00
	17.00	-16.00	2.00	7.00	8128.00	8103.00
	-7.00	-23.00	17.00	27.00	8128.00	8103.00
	-27.00	-46.00	15.00	41.00	8129.00	8104.00
	-37.00	-68.00	3.00	36.00	8128.00	8103.00
	-18.00	-83.00	10.00	45.00	8128.00	8103.00
	-4.00	-77.00	19.00	34.00	8128.00	8104.00
	-15.00	-58.00	19.00	16.00	8128.00	8104.00
	-36.00	-49.00	12.00	6.00	8128.00	8103.00
	-43.00	-24.00	6.00	-7.00	8129.00	8104.00
	-28.00	3.00	-2.00	-11.00	8128.00	8103.00
	-3.00	27.00	-8.00	-15.00	8129.00	8103.00
	3.00	51.00	-12.00	-15.00	8129.00	8103.00
	-6.00	71.00	-11.00	-17.00	8130.00	8104.00
	-10.00	73.00	-9.00	-22.00	8128.00	8103.00
	-25.00	76.00	-9.00	-30.00	8129.00	8104.00
	-25.00	63.00	-11.00	-25.00	8129.00	8104.00
	-22.00	13.00	-5.00	-7.00	8129.00	8104.00
	-21.00	-17.00	4.00	-1.00	8128.00	8103.00
	-25.00	-39.00	3.00	-4.00	8129.00	8104.00
	-23.00	-41.00	-3.00	-8.00	8130.00	8104.00
	-11.00	-31.00	-6.00	-12.00	8129.00	8104.00
	7.00	-30.00	-6.00	1.00	8128.00	8103.00
	22.00	-16.00	0.00	4.00	8128.00	8103.00
	30.00	7.00	-3.00	-2.00	8128.00	8103.00
	29.00	23.00	-5.00	-8.00	8129.00	8103.00
	25.00	42.00	-4.00	-10.00	8129.00	8103.00
	28.00	43.00	-6.00	-5.00	8128.00	8103.00
	43.00	33.00	-8.00	-1.00	8129.00	8103.00
	30.00	28.00	-6.00	-10.00	8128.00	8104.00
	19.00	20.00	-6.00	-6.00	8130.00	8104.00
	6.00	7.00	-11.00	1.00	8129.00	8104.00
	-7.00	-8.00	0.00	7.00	8128.00	8104.00
	-15.00	-22.00	14.00	9.00	8127.00	8103.00
	-32.00	-18.00	22.00	2.00	8129.00	8104.00
	-28.00	-22.00	17.00	4.00	8127.00	8104.00
	-10.00	-16.00	10.00	-5.00	8129.00	8104.00
	-18.00	-10.00	3.00	-12.00	8129.00	8104.00
	-37.00	-15.00	-3.00	-12.00	8129.00	8104.00
	-25.00	-21.00	-8.00	-5.00	8129.00	8103.00
	-4.00	-19.00	-6.00	-1.00	8129.00	8104.00
	11.00	-17.00	-6.00	-3.00	8129.00	8104.00
	14.00	-19.00	-4.00	-3.00	8128.00	8103.00
	9.00	-20.00	1.00	3.00	8128.00	8104.00
	5.00	-17.00	3.00	1.00	8128.00	8103.00
	-15.00	-8.00	4.00	-4.00	8128.00	8103.00
	-18.00	-4.00	-4.00	0.00	8129.00	8104.00
	-10.00	-2.00	-4.00	9.00	8128.00	8104.00
	-2.00	-8.00	3.00	16.00	8128.00	8104.00
	-8.00	-7.00	1.00	20.00	8128.00	8104.00
	-14.00	-10.00	1.00	20.00	8128.00	8103.00
	-15.00	1.00	-6.00	10.00	8128.00	8104.00
	-8.00	10.00	-7.00	3.00	8128.00	8103.00
	8.00	12.00	-5.00	10.00	8128.00	8104.00
	8.00	30.00	-12.00	-3.00	8129.00	8104.00
	36.00	35.00	-15.00	-22.00	8128.00	8103.00
	68.00	31.00	-13.00	-27.00	8129.00	8104.00
	59.00	26.00	-13.00	-29.00	8129.00	8104.00
	37.00	16.00	-15.00	-26.00	8129.00	8104.00
	20.00	0.00	-12.00	-16.00	8129.00	8103.00
	12.00	-14.00	8.00	2.00	8127.00	8103.00
	-5.00	-23.00	5.00	13.00	8128.00	8103.00
	-27.00	-50.00	6.00	30.00	8128.00	8104.00
	-53.00	-56.00	16.00	21.00	8127.00	8103.00
	-47.00	-57.00	27.00	13.00	8128.00	8103.00
	-42.00	-65.00	38.00	20.00	8128.00	8104.00
	-34.00	-54.00	36.00	8.00	8128.00	8103.00
	-20.00	-38.00	24.00	3.00	8128.00	8104.00
	-13.00	-25.00	19.00	10.00	8128.00	8104.00
	-13.00	4.00	8.00	6.00	8128.00	8104.00
	-26.00	10.00	5.00	-8.00	8129.00	8104.00
	-21.00	5.00	-3.00	-20.00	8129.00	8104.00
	4.00	13.00	-9.00	-21.00	8128.00	8103.00
	12.00	29.00	-12.00	-14.00	8129.00	8104.00
	5.00	40.00	-7.00	-7.00	8129.00	8104.00
	15.00	52.00	-14.00	-4.00	8129.00	8104.00
	20.00	49.00	-19.00	8.00	8128.00	8103.00
	15.00	45.00	-12.00	5.00	8128.00	8103.00
	16.00	43.00	-12.00	-2.00	8128.00	8103.00
	16.00	27.00	-10.00	4.00	8128.00	8104.00
	6.00	27.00	-6.00	-6.00	8128.00	8103.00
	10.00	5.00	5.00	-8.00	8128.00	8104.00
	28.00	-29.00	-4.00	-9.00	8128.00	8103.00
	23.00	-48.00	-9.00	-13.00	8128.00	8103.00
	23.00	-43.00	-10.00	-5.00	8128.00	8103.00
	23.00	-30.00	-12.00	3.00	8127.00	8103.00
	7.00	-15.00	-13.00	4.00	8127.00	8104.00
	-17.00	0.00	-17.00	3.00	8127.00	8103.00
	-32.00	9.00	-20.00	6.00	8128.00	8104.00
	-24.00	16.00	-14.00	6.00	8128.00	8104.00
	-12.00	28.00	-11.00	-1.00	8128.00	8103.00
	9.00	34.00	-12.00	-7.00	8128.00	8103.00
	5.00	36.00	-17.00	-21.00	8128.00	8103.00
	7.00	27.00	-22.00	-20.00	8128.00	8103.00
	4.00	13.00	-17.00	-6.00	8128.00	8103.00
	-8.00	2.00	-8.00	-3.00	8128.00	8103.00
	-10.00	-4.00	9.00	-2.00	8128.00	8103.00
	-32.00	-22.00	25.00	3.00	8128.00	8103.00
	-42.00	-22.00	35.00	-7.00	8128.00	8103.00
	-26.00	-23.00	32.00	-4.00	8128.00	8103.00
	-17.00	-26.00	23.00	-1.00	8128.00	8103.00
	-24.00	-34.00	26.00	0.00	8128.00	8103.00
	-11.00	-32.00	16.00	0.00	8128.00	8104.00
	0.00	-22.00	4.00	-7.00	8128.00	8103.00
	6.00	-16.00	-3.00	-7.00	8128.00	8102.00
	11.00	-20.00	-5.00	-8.00	8128.00	8103.00
	16.00	-9.00	-10.00	-10.00	8127.00	8103.00
	18.00	2.00	-13.00	-8.00	8128.00	8103.00
	34.00	13.00	-14.00	-7.00	8129.00	8103.00
	40.00	21.00	-11.00	2.00	8128.00	8103.00
	28.00	23.00	-10.00	7.00	8128.00	8103.00
	25.00	8.00	-9.00	22.00	8128.00	8103.00
	23.00	2.00	-3.00	27.00	8127.00	8102.00
	11.00	2.00	5.00	17.00	8127.00	8103.00
	-7.00	13.00	-2.00	-1.00	8129.00	8103.00
	-23.00	0.00	-4.00	-7.00	8129.00	8103.00
	-25.00	-18.00	-5.00	14.00	8127.00	8103.00
	-29.00	-18.00	-2.00	13.00	8127.00	8102.00
	-35.00	-13.00	8.00	2.00	8128.00	8103.00
	-39.00	-4.00	9.00	-14.00	8128.00	8103.00
	-27.00	2.00	6.00	-20.00	8128.00	8103.00
	-22.00	-4.00	9.00	-12.00	8128.00	8103.00
	-15.00	-12.00	5.00	-5.00	8128.00	8102.00
	-5.00	-8.00	-3.00	-8.00	8128.00	8103.00
	0.00	-6.00	-8.00	-13.00	8129.00	8104.00
	3.00	-13.00	-10.00	-10.00	8128.00	8102.00
	12.00	-17.00	-9.00	-7.00	8127.00	8102.00
	23.00	-31.00	2.00	12.00	8128.00	8103.00
	33.00	-48.00	9.00	37.00	8128.00	8103.00
	35.00	-23.00	9.00	18.00	8128.00	8103.00
	24.00	5.00	6.00	0.00	8128.00	8103.00
	6.00	16.00	1.00	4.00	8127.00	8102.00
	-2.00	20.00	-11.00	-2.00	8129.00	8103.00
	6.00	32.00	-11.00	-17.00	8129.00	8103.00
	-8.00	29.00	6.00	-17.00	8127.00	8102.00
	-24.00	25.00	7.00	-10.00	8129.00	8104.00
	-27.00	-3.00	2.00	16.00	8128.00	8103.00
	-11.00	-20.00	1.00	19.00	8128.00	8104.00
	-10.00	-14.00	1.00	2.00	8128.00	8103.00
	-26.00	-12.00	-4.00	-7.00	8129.00	8104.00
	-13.00	-21.00	-6.00	-10.00	8129.00	8103.00
	1.00	-25.00	-5.00	2.00	8128.00	8103.00
	1.00	-34.00	0.00	9.00	8127.00	8102.00
	-5.00	-33.00	6.00	2.00	8127.00	8103.00
	-10.00	-12.00	13.00	-7.00	8128.00	8103.00
	9.00	6.00	5.00	-9.00	8129.00	8103.00
	12.00	25.00	2.00	-11.00	8130.00	8104.00
	0.00	38.00	-10.00	-28.00	8128.00	8103.00
	-10.00	28.00	-17.00	-18.00	8129.00	8103.00
	10.00	36.00	-21.00	-25.00	8128.00	8104.00
	10.00	52.00	-12.00	-19.00	8128.00	8103.00
	9.00	59.00	6.00	0.00	8129.00	8104.00
	7.00	64.00	5.00	-1.00	8129.00	8104.00
	17.00	57.00	4.00	1.00	8127.00	8103.00
	19.00	23.00	3.00	16.00	8128.00	8103.00
	10.00	-16.00	3.00	8.00	8128.00	8104.00
	-6.00	-21.00	3.00	-7.00	8129.00	8104.00
	-3.00	-31.00	-8.00	-1.00	8129.00	8104.00
	4.00	-22.00	-8.00	4.00	8128.00	8104.00
	22.00	-16.00	-8.00	1.00	8127.00	8103.00
	10.00	-8.00	-9.00	2.00	8128.00	8103.00
	-2.00	-2.00	-11.00	4.00	8128.00	8104.00
	-3.00	-9.00	-9.00	8.00	8127.00	8103.00
	-13.00	-21.00	10.00	12.00	8128.00	8103.00
	-22.00	-29.00	17.00	9.00	8128.00	8104.00
	-30.00	-31.00	18.00	3.00	8128.00	8103.00
	-18.00	-27.00	15.00	-2.00	8129.00	8104.00
	-6.00	-22.00	17.00	-8.00	8128.00	8103.00
	-13.00	-13.00	17.00	-10.00	8128.00	8103.00
	-15.00	-2.00	10.00	-15.00	8128.00	8103.00
	1.00	6.00	0.00	-13.00	8129.00	8104.00
	7.00	12.00	-6.00	-11.00	8129.00	8104.00
	3.00	14.00	-11.00	-7.00	8128.00	8104.00
	-5.00	8.00	-12.00	2.00	8129.00	8105.00
	-6.00	11.00	-10.00	-6.00	8128.00	8103.00
	5.00	8.00	-8.00	-7.00	8128.00	8102.00
	22.00	4.00	-10.00	-6.00	8129.00	8104.00
	27.00	-3.00	-12.00	-1.00	8129.00	8104.00
	21.00	-27.00	-10.00	7.00	8128.00	8104.00
	19.00	-29.00	-6.00	5.00	8128.00	8103.00
	20.00	-19.00	-5.00	6.00	8128.00	8103.00
	11.00	-23.00	-6.00	13.00	8127.00	8102.00
	3.00	-27.00	-6.00	20.00	8127.00	8103.00
	-7.00	-19.00	-8.00	8.00	8127.00	8103.00
	-31.00	-15.00	-7.00	10.00	8128.00	8103.00
	-33.00	-12.00	1.00	15.00	8128.00	8104.00
	-20.00	-4.00	7.00	4.00	8128.00	8103.00
	11.00	-6.00	11.00	-6.00	8129.00	8104.00
	17.00	-8.00	6.00	-12.00	8128.00	8103.00
	7.00	-1.00	3.00	-10.00	8129.00	8103.00
	-16.00	12.00	-7.00	-16.00	8128.00	8103.00
	-25.00	3.00	-9.00	-11.00	8129.00	8104.00
	-34.00	10.00	-9.00	-5.00	8129.00	8104.00
	-31.00	26.00	-12.00	-9.00	8129.00	8104.00
	-13.00	38.00	-13.00	-8.00	8129.00	8104.00
	-14.00	35.00	-5.00	-1.00	8129.00	8104.00
	-4.00	31.00	4.00	-5.00	8128.00	8103.00
	-9.00	2.00	10.00	-1.00	8129.00	8104.00
	-27.00	-14.00	15.00	2.00	8128.00	8104.00
	-10.00	-25.00	16.00	7.00	8129.00	8104.00
	-2.00	-46.00	16.00	10.00	8128.00	8103.00
	6.00	-56.00	14.00	20.00	8128.00	8104.00
	4.00	-59.00	8.00	29.00	8128.00	8104.00
	-2.00	-50.00	8.00	26.00	8128.00	8103.00
	3.00	-11.00	8.00	19.00	8127.00	8103.00
	13.00	20.00	4.00	-7.00	8128.00	8103.00
	7.00	33.00	-4.00	-24.00	8129.00	8104.00
	-5.00	37.00	-4.00	-34.00	8129.00	8103.00
	26.00	36.00	-10.00	-32.00	8129.00	8103.00
	83.00	33.00	-12.00	-19.00	8129.00	8104.00
	81.00	36.00	-15.00	-15.00	8128.00	8103.00
	49.00	51.00	-13.00	-15.00	8129.00	8103.00
	16.00	55.00	-12.00	-6.00	8129.00	8104.00
	2.00	49.00	-12.00	3.00	8128.00	8104.00
	1.00	34.00	-21.00	-2.00	8129.00	8103.00
	-10.00	14.00	-27.00	-6.00	8129.00	8104.00
	-18.00	-9.00	-14.00	9.00	8129.00	8104.00
	-31.00	-31.00	-7.00	10.00	8128.00	8104.00
	-40.00	-66.00	2.00	18.00	8129.00	8104.00
	-43.00	-69.00	9.00	25.00	8127.00	8103.00
	-30.00	-32.00	22.00	2.00	8128.00	8104.00
	-12.00	-20.00	26.00	-2.00	8129.00	8104.00
	-3.00	-21.00	28.00	8.00	8128.00	8104.00
	1.00	-11.00	26.00	5.00	8128.00	8104.00
	-15.00	-10.00	16.00	-6.00	8128.00	8103.00
	-11.00	-3.00	9.00	-13.00	8129.00	8104.00
	-3.00	3.00	2.00	-16.00	8128.00	8103.00
	7.00	3.00	-3.00	-11.00	8129.00	8104.00
	8.00	7.00	-8.00	-8.00	8129.00	8104.00
	8.00	13.00	-13.00	-4.00	8129.00	8104.00
	4.00	9.00	-10.00	0.00	8128.00	8103.00
	-5.00	3.00	-7.00	2.00	8128.00	8104.00
	-8.00	1.00	-7.00	5.00	8128.00	8103.00
	0.00	-1.00	-9.00	6.00	8128.00	8104.00
	5.00	5.00	-9.00	-3.00	8129.00	8104.00
	10.00	-1.00	-5.00	-6.00	8129.00	8104.00
	17.00	-8.00	1.00	-5.00	8130.00	8104.00
	15.00	-7.00	3.00	-4.00	8129.00	8104.00
	14.00	-2.00	4.00	-11.00	8129.00	8104.00
	11.00	0.00	7.00	-9.00	8129.00	8104.00
	25.00	-5.00	9.00	-1.00	8129.00	8104.00
	19.00	-12.00	2.00	4.00	8128.00	8104.00
	27.00	-23.00	-7.00	12.00	8128.00	8104.00
	21.00	-41.00	-9.00	14.00	8128.00	8104.00
	7.00	-37.00	-11.00	11.00	8128.00	8103.00
	-7.00	-20.00	-3.00	6.00	8129.00	8104.00
	-21.00	-18.00	-3.00	16.00	8128.00	8104.00
	-24.00	-2.00	1.00	7.00	8127.00	8103.00
	-22.00	26.00	11.00	-12.00	8129.00	8104.00
	-26.00	38.00	9.00	-8.00	8129.00	8104.00
	-46.00	44.00	4.00	-14.00	8128.00	8103.00
	-43.00	48.00	2.00	-16.00	8129.00	8104.00
	-39.00	29.00	-4.00	-22.00	8129.00	8104.00
	-29.00	14.00	-8.00	-27.00	8128.00	8104.00
	-25.00	-3.00	-4.00	-16.00	8128.00	8103.00
	-15.00	-14.00	1.00	-1.00	8129.00	8104.00
	-13.00	-14.00	3.00	0.00	8130.00	8104.00
	-8.00	-3.00	6.00	-3.00	8128.00	8103.00
	0.00	-1.00	11.00	3.00	8127.00	8103.00
	10.00	-8.00	6.00	20.00	8128.00	8104.00
	13.00	-16.00	3.00	23.00	8129.00	8104.00
	-2.00	-11.00	3.00	0.00	8129.00	8103.00
	-18.00	-9.00	1.00	-14.00	8128.00	8103.00
	-9.00	-7.00	-2.00	-18.00	8129.00	8104.00
	10.00	-13.00	-4.00	-6.00	8129.00	8104.00
	22.00	-13.00	-8.00	2.00	8128.00	8103.00
	34.00	-10.00	-11.00	3.00	8128.00	8103.00
	27.00	-29.00	-19.00	3.00	8128.00	8104.00
	12.00	-21.00	-19.00	-3.00	8129.00	8104.00
	5.00	-27.00	-11.00	5.00	8128.00	8104.00
	5.00	-31.00	-9.00	7.00	8128.00	8103.00
	6.00	-17.00	-11.00	6.00	8128.00	8103.00
	4.00	-7.00	-11.00	10.00	8128.00	8104.00
	1.00	8.00	-9.00	12.00	8128.00	8103.00
	0.00	36.00	3.00	3.00	8128.00	8104.00
	-14.00	41.00	5.00	5.00	8128.00	8104.00
	-18.00	50.00	3.00	-2.00	8128.00	8103.00
	-11.00	46.00	1.00	-1.00	8129.00	8104.00
	6.00	26.00	6.00	-3.00	8129.00	8104.00
	18.00	21.00	11.00	-14.00	8129.00	8104.00
	10.00	12.00	8.00	-16.00	8128.00	8104.00
	7.00	5.00	-2.00	-20.00	8128.00	8104.00
	14.00	-5.00	1.00	-14.00	8129.00	8104.00
	17.00	-10.00	1.00	-16.00	8129.00	8104.00
	34.00	-12.00	0.00	-9.00	8129.00	8104.00
	27.00	-18.00	4.00	-9.00	8129.00	8104.00
	15.00	-20.00	4.00	-9.00	8129.00	8104.00
	6.00	-14.00	-2.00	-6.00	8129.00	8104.00
	0.00	-17.00	0.00	4.00	8128.00	8103.00
	-11.00	-24.00	-2.00	7.00	8128.00	8104.00
	-15.00	-33.00	-10.00	12.00	8128.00	8104.00
	-13.00	-23.00	-14.00	7.00	8128.00	8104.00
	-20.00	-10.00	-10.00	8.00	8128.00	8104.00
	-22.00	-7.00	3.00	16.00	8128.00	8104.00
	-28.00	11.00	14.00	13.00	8128.00	8104.00
	-24.00	31.00	12.00	2.00	8128.00	8104.00
	-8.00	37.00	6.00	0.00	8128.00	8103.00
	14.00	51.00	-5.00	-11.00	8129.00	8103.00
	34.00	61.00	-3.00	-18.00	8129.00	8103.00
	40.00	37.00	7.00	-18.00	8128.00	8102.00
	41.00	-15.00	-5.00	8.00	8128.00	8104.00
	48.00	-39.00	-14.00	19.00	8129.00	8104.00
	54.00	-45.00	-13.00	19.00	8127.00	8103.00
	54.00	-27.00	-18.00	10.00	8128.00	8104.00
	44.00	-20.00	-20.00	3.00	8129.00	8104.00
	-3.00	-32.00	-15.00	16.00	8127.00	8103.00
	-39.00	-45.00	-6.00	30.00	8128.00	8103.00
	-71.00	-37.00	6.00	24.00	8128.00	8103.00
	-69.00	-19.00	14.00	7.00	8128.00	8104.00
	-69.00	-13.00	27.00	2.00	8128.00	8104.00
	-61.00	-7.00	36.00	-2.00	8129.00	8103.00
	-57.00	1.00	22.00	-15.00	8129.00	8104.00
	-67.00	9.00	11.00	-14.00	8128.00	8103.00
	-45.00	17.00	15.00	-24.00	8129.00	8104.00
	-46.00	23.00	18.00	-24.00	8129.00	8104.00
	-35.00	17.00	16.00	-15.00	8129.00	8103.00
	-4.00	15.00	14.00	-16.00	8129.00	8104.00
	0.00	19.00	7.00	-30.00	8128.00	8103.00
	8.00	10.00	3.00	-30.00	8129.00	8104.00
	23.00	3.00	-4.00	-24.00	8128.00	8103.00
	20.00	-6.00	-12.00	-15.00	8128.00	8103.00
	9.00	-20.00	-16.00	5.00	8128.00	8104.00
	-11.00	-25.00	-17.00	11.00	8128.00	8104.00
	-30.00	-37.00	-11.00	20.00	8129.00	8104.00
	-19.00	-23.00	-8.00	5.00	8129.00	8104.00
	-11.00	-11.00	-9.00	0.00	8129.00	8104.00
	1.00	-6.00	-7.00	2.00	8128.00	8104.00
	6.00	-10.00	-10.00	5.00	8128.00	8103.00
	6.00	-2.00	-8.00	-1.00	8129.00	8104.00
	23.00	9.00	-5.00	1.00	8128.00	8103.00
	43.00	12.00	0.00	-1.00	8129.00	8104.00
	46.00	8.00	-10.00	2.00	8128.00	8103.00
	42.00	-10.00	-15.00	2.00	8128.00	8104.00
	25.00	-18.00	-12.00	0.00	8129.00	8103.00
	16.00	-12.00	-9.00	-5.00	8128.00	8103.00
	14.00	-5.00	-10.00	-6.00	8128.00	8103.00
	13.00	0.00	-7.00	-4.00	8128.00	8103.00
	18.00	4.00	-7.00	0.00	8128.00	8103.00
	18.00	12.00	-5.00	2.00	8128.00	8104.00
	11.00	19.00	1.00	1.00	8129.00	8104.00
	13.00	17.00	3.00	-4.00	8129.00	8104.00
	5.00	22.00	3.00	-6.00	8128.00	8103.00
	-3.00	26.00	0.00	-9.00	8129.00	8104.00
	-3.00	18.00	0.00	-2.00	8129.00	8104.00
	-2.00	14.00	2.00	-1.00	8129.00	8103.00
	-6.00	10.00	0.00	3.00	8127.00	8103.00
	-9.00	5.00	-6.00	3.00	8127.00	8103.00
	2.00	2.00	-6.00	8.00	8128.00	8104.00
	2.00	-3.00	-3.00	5.00	8128.00	8104.00
	-5.00	-14.00	0.00	3.00	8128.00	8104.00
	-3.00	-9.00	-5.00	3.00	8127.00	8104.00
	-10.00	-4.00	4.00	1.00	8127.00	8103.00
	-25.00	-2.00	12.00	0.00	8128.00	8103.00
	-26.00	1.00	5.00	1.00	8127.00	8102.00
	-18.00	-12.00	5.00	8.00	8128.00	8103.00
	-9.00	-5.00	4.00	2.00	8128.00	8103.00
	1.00	-4.00	-3.00	-6.00	8128.00	8103.00
	-4.00	-6.00	-7.00	-1.00	8128.00	8103.00
	-5.00	-6.00	-6.00	-5.00	8128.00	8103.00
	6.00	-16.00	-2.00	-4.00	8128.00	8103.00
	10.00	-17.00	12.00	6.00	8128.00	8104.00
	12.00	-23.00	6.00	-2.00	8128.00	8103.00
	15.00	-29.00	2.00	-3.00	8129.00	8104.00
	19.00	-26.00	-3.00	-8.00	8127.00	8102.00
	14.00	-33.00	3.00	-5.00	8129.00	8104.00
	19.00	-8.00	2.00	-6.00	8128.00	8103.00
	23.00	16.00	-2.00	-11.00	8128.00	8103.00
	36.00	33.00	-3.00	-4.00	8128.00	8103.00
	25.00	31.00	-8.00	14.00	8128.00	8104.00
	1.00	18.00	-11.00	11.00	8127.00	8103.00
	-8.00	15.00	-9.00	8.00	8127.00	8103.00
	-20.00	8.00	-3.00	12.00	8128.00	8104.00
	-31.00	9.00	2.00	-1.00	8128.00	8103.00
	-37.00	10.00	2.00	-11.00	8128.00	8104.00
	-42.00	9.00	7.00	-15.00	8128.00	8103.00
	-35.00	2.00	10.00	-17.00	8129.00	8104.00
	-29.00	-6.00	6.00	-19.00	8128.00	8103.00
	-33.00	-4.00	7.00	-18.00	8128.00	8103.00
	-21.00	-6.00	3.00	-14.00	8128.00	8103.00
	-14.00	-4.00	10.00	-9.00	8128.00	8103.00
	-18.00	2.00	5.00	-10.00	8128.00	8104.00
	-16.00	-3.00	11.00	-7.00	8128.00	8103.00
	-11.00	6.00	8.00	-5.00	8128.00	8103.00
	19.00	0.00	-2.00	9.00	8127.00	8103.00
	41.00	-7.00	-12.00	14.00	8128.00	8103.00
	27.00	-8.00	-13.00	-2.00	8128.00	8103.00
	13.00	-4.00	-14.00	-15.00	8129.00	8103.00
	19.00	-13.00	-16.00	-7.00	8128.00	8103.00
	31.00	-22.00	-14.00	6.00	8128.00	8103.00
	25.00	-21.00	-13.00	19.00	8127.00	8104.00
	11.00	-22.00	3.00	30.00	8128.00	8103.00
	-3.00	-4.00	13.00	26.00	8127.00	8103.00
	-14.00	-2.00	13.00	27.00	8128.00	8103.00
	-32.00	-25.00	7.00	22.00	8127.00	8103.00
	-53.00	-35.00	-3.00	10.00	8128.00	8104.00
	-45.00	-27.00	-2.00	-3.00	8128.00	8102.00
	-25.00	-26.00	6.00	1.00	8127.00	8103.00
	-17.00	-18.00	12.00	-7.00	8128.00	8102.00
	-13.00	-2.00	13.00	-16.00	8128.00	8102.00
	1.00	22.00	3.00	-20.00	8128.00	8103.00
	27.00	40.00	-3.00	-26.00	8128.00	8103.00
	28.00	43.00	-8.00	-30.00	8128.00	8103.00
	61.00	44.00	-6.00	-33.00	8128.00	8103.00
	66.00	31.00	-7.00	-21.00	8128.00	8103.00
	46.00	15.00	-13.00	-9.00	8128.00	8103.00
	13.00	-3.00	-17.00	-6.00	8128.00	8103.00
	4.00	-14.00	-15.00	4.00	8127.00	8103.00
	5.00	-20.00	-16.00	23.00	8127.00	8103.00
	-18.00	-22.00	-10.00	24.00	8128.00	8103.00
	-29.00	-18.00	2.00	15.00	8127.00	8103.00
	-39.00	-7.00	6.00	12.00	8127.00	8103.00
	-41.00	2.00	1.00	4.00	8127.00	8103.00
	-32.00	-4.00	10.00	12.00	8127.00	8103.00
	-41.00	-10.00	15.00	16.00	8127.00	8102.00
	-31.00	2.00	9.00	4.00	8127.00	8103.00
	-21.00	8.00	3.00	-8.00	8128.00	8103.00
	-13.00	4.00	-8.00	-16.00	8129.00	8104.00
	0.00	10.00	-13.00	-22.00	8129.00	8104.00
	11.00	-7.00	-13.00	-17.00	8128.00	8103.00
	15.00	-34.00	-14.00	-11.00	8129.00	8104.00
	20.00	-42.00	-20.00	-9.00	8129.00	8103.00
	20.00	-48.00	-24.00	-6.00	8128.00	8103.00
	22.00	-40.00	-22.00	-4.00	8128.00	8103.00
	-9.00	-16.00	-10.00	0.00	8128.00	8103.00
	-17.00	0.00	-6.00	1.00	8129.00	8104.00
	-22.00	9.00	1.00	12.00	8128.00	8104.00
	-5.00	27.00	19.00	9.00	8128.00	8104.00
	14.00	28.00	15.00	15.00	8128.00	8105.00
	13.00	33.00	11.00	7.00	8128.00	8103.00
	-2.00	55.00	6.00	-22.00	8128.00	8103.00
	-5.00	53.00	2.00	-28.00	8128.00	8103.00
	4.00	34.00	1.00	-23.00	8128.00	8103.00
	12.00	19.00	4.00	-4.00	8128.00	8103.00
	18.00	13.00	0.00	4.00	8127.00	8103.00
	27.00	5.00	-4.00	5.00	8128.00	8103.00
	32.00	-7.00	3.00	2.00	8128.00	8104.00
	22.00	-16.00	3.00	-1.00	8128.00	8103.00
	4.00	-37.00	6.00	-3.00	8128.00	8104.00
	-4.00	-44.00	12.00	-8.00	8128.00	8103.00
	3.00	-34.00	8.00	-8.00	8128.00	8103.00
	15.00	-13.00	3.00	-11.00	8129.00	8104.00
	12.00	9.00	-6.00	-5.00	8128.00	8103.00
	1.00	18.00	-14.00	-2.00	8127.00	8103.00
	-15.00	32.00	-14.00	-7.00	8128.00	8103.00
	-8.00	36.00	-12.00	-3.00	8128.00	8103.00
	-7.00	-1.00	-8.00	12.00	8127.00	8102.00
	4.00	-17.00	1.00	8.00	8127.00	8102.00
	8.00	-9.00	0.00	-1.00	8129.00	8103.00
	2.00	1.00	-12.00	-6.00	8128.00	8102.00
	-3.00	2.00	-7.00	0.00	8128.00	8103.00
	-8.00	8.00	8.00	-5.00	8128.00	8102.00
	3.00	7.00	19.00	1.00	8127.00	8103.00
	-10.00	1.00	19.00	1.00	8128.00	8104.00
	-4.00	-2.00	19.00	0.00	8128.00	8103.00
	0.00	-7.00	18.00	8.00	8128.00	8104.00
	15.00	-16.00	12.00	14.00	8128.00	8103.00
	-2.00	-5.00	13.00	4.00	8128.00	8104.00
	-5.00	8.00	11.00	-13.00	8128.00	8103.00
	-22.00	1.00	4.00	-6.00	8128.00	8103.00
	-27.00	-20.00	0.00	2.00	8127.00	8103.00
	-27.00	-31.00	-6.00	2.00	8128.00	8103.00
	-22.00	-51.00	-14.00	3.00	8128.00	8104.00
	-25.00	-72.00	-11.00	19.00	8128.00	8103.00
	-12.00	-73.00	-2.00	21.00	8128.00	8103.00
	-9.00	-61.00	4.00	19.00	8128.00	8104.00
	-4.00	-42.00	1.00	9.00	8127.00	8103.00
	-3.00	-27.00	2.00	12.00	8128.00	8104.00
	-8.00	0.00	-2.00	11.00	8128.00	8104.00
	-9.00	27.00	-6.00	6.00	8127.00	8103.00
	-14.00	40.00	-3.00	3.00	8127.00	8103.00
	-2.00	63.00	-6.00	-7.00	8129.00	8104.00
	4.00	81.00	-6.00	-23.00	8128.00	8103.00
	18.00	80.00	1.00	-32.00	8129.00	8104.00
	20.00	56.00	3.00	-35.00	8129.00	8104.00
	18.00	43.00	2.00	-27.00	8129.00	8104.00
	29.00	25.00	1.00	-15.00	8128.00	8103.00
	26.00	16.00	-2.00	-11.00	8128.00	8103.00
	13.00	9.00	-3.00	-3.00	8129.00	8104.00
	6.00	3.00	-10.00	0.00	8128.00	8103.00
	5.00	-5.00	-13.00	9.00	8128.00	8104.00
	-7.00	-26.00	-10.00	24.00	8127.00	8102.00
	-14.00	-42.00	0.00	22.00	8128.00	8103.00
	-20.00	-48.00	3.00	9.00	8127.00	8103.00
	-17.00	-42.00	3.00	9.00	8128.00	8103.00
	-13.00	-47.00	1.00	5.00	8128.00	8103.00
	-22.00	-43.00	2.00	-7.00	8129.00	8103.00
	-14.00	-29.00	-2.00	-12.00	8129.00	8104.00
	-2.00	-16.00	-8.00	-12.00	8128.00	8102.00
	-2.00	-9.00	-8.00	-10.00	8128.00	8103.00
	-8.00	-3.00	-5.00	-12.00	8128.00	8103.00
	9.00	7.00	-8.00	-15.00	8128.00	8103.00
	20.00	8.00	-13.00	-9.00	8128.00	8103.00
	21.00	5.00	-12.00	1.00	8127.00	8102.00
	16.00	3.00	-11.00	5.00	8128.00	8103.00
	7.00	5.00	-11.00	10.00	8128.00	8103.00
	2.00	15.00	-7.00	6.00	8128.00	8103.00
	-5.00	17.00	-2.00	1.00	8128.00	8103.00
	-5.00	17.00	6.00	-6.00	8128.00	8103.00
	10.00	17.00	16.00	-6.00	8128.00	8103.00
	16.00	6.00	12.00	-2.00	8128.00	8103.00
	10.00	-1.00	8.00	-3.00	8128.00	8103.00
	7.00	-7.00	7.00	1.00	8127.00	8102.00
	0.00	-13.00	3.00	8.00	8127.00	8103.00
	-23.00	-17.00	3.00	6.00	8127.00	8103.00
	-27.00	-19.00	2.00	4.00	8127.00	8103.00
	-28.00	-20.00	-7.00	-1.00	8128.00	8102.00
	-22.00	-18.00	-2.00	-6.00	8128.00	8103.00
	-25.00	-9.00	3.00	-4.00	8129.00	8103.00
	-44.00	5.00	-8.00	-3.00	8128.00	8103.00
	-39.00	17.00	-7.00	-4.00	8128.00	8102.00
	-24.00	37.00	-6.00	-9.00	8128.00	8102.00
	-18.00	53.00	-4.00	-11.00	8128.00	8103.00
	-5.00	46.00	-7.00	-12.00	8128.00	8103.00
	6.00	27.00	-7.00	-11.00	8129.00	8103.00
	13.00	17.00	-11.00	-8.00	8128.00	8103.00
	23.00	14.00	-13.00	-9.00	8129.00	8103.00
	32.00	13.00	-9.00	-11.00	8129.00	8103.00
	35.00	9.00	-5.00	-13.00	8129.00	8104.00
	31.00	1.00	-14.00	-12.00	8129.00	8104.00
	40.00	-6.00	-13.00	-11.00	8129.00	8104.00
	47.00	-21.00	-8.00	-14.00	8128.00	8103.00
	35.00	-51.00	-3.00	-4.00	8128.00	8103.00
	18.00	-55.00	3.00	4.00	8128.00	8104.00
	13.00	-58.00	8.00	25.00	8128.00	8103.00
	4.00	-64.00	4.00	43.00	8128.00	8102.00
	-9.00	-63.00	1.00	38.00	8128.00	8103.00
	-11.00	-44.00	5.00	29.00	8127.00	8102.00
	-4.00	-32.00	7.00	28.00	8127.00	8103.00
	5.00	-6.00	11.00	14.00	8128.00	8104.00
	6.00	14.00	6.00	-6.00	8128.00	8103.00
	-13.00	23.00	9.00	-20.00	8128.00	8103.00
	-27.00	40.00	10.00	-25.00	8128.00	8103.00
	-26.00	56.00	6.00	-24.00	8128.00	8103.00
	-12.00	62.00	2.00	-22.00	8128.00	8103.00
	-10.00	62.00	4.00	-10.00	8128.00	8103.00
	-18.00	48.00	5.00	-5.00	8128.00	8103.00
	-21.00	8.00	11.00	6.00	8128.00	8104.00
	-13.00	-9.00	11.00	1.00	8128.00	8103.00
	-17.00	-20.00	5.00	1.00	8128.00	8103.00
	-21.00	-40.00	-9.00	3.00	8127.00	8103.00
	-18.00	-48.00	-7.00	9.00	8127.00	8102.00
	-25.00	-45.00	5.00	15.00	8128.00	8104.00
	-16.00	-27.00	-3.00	13.00	8128.00	8104.00
	20.00	3.00	-12.00	-4.00	8128.00	8102.00
	20.00	19.00	-16.00	-12.00	8129.00	8103.00
	18.00	22.00	-13.00	-11.00	8129.00	8103.00
	-3.00	20.00	-7.00	-18.00	8128.00	8103.00
	-9.00	19.00	0.00	-8.00	8128.00	8103.00
	3.00	13.00	13.00	-9.00	8128.00	8103.00
	24.00	0.00	15.00	-5.00	8128.00	8103.00
	26.00	-11.00	4.00	12.00	8128.00	8104.00
	19.00	-1.00	-6.00	2.00	8127.00	8103.00
	9.00	-8.00	3.00	4.00	8127.00	8103.00
	-20.00	-4.00	5.00	-5.00	8129.00	8104.00
	-24.00	8.00	6.00	-9.00	8129.00	8104.00
	-7.00	7.00	7.00	-3.00	8128.00	8103.00
	4.00	1.00	0.00	0.00	8129.00	8103.00
	3.00	-5.00	-3.00	-2.00	8128.00	8103.00
	8.00	1.00	-9.00	-10.00	8128.00	8103.00
	20.00	3.00	-8.00	-12.00	8128.00	8103.00
	12.00	-14.00	-6.00	-15.00	8128.00	8103.00
	-7.00	-26.00	-8.00	-10.00	8129.00	8104.00
	-22.00	-29.00	-4.00	-1.00	8128.00	8103.00
	-26.00	-21.00	-3.00	9.00	8128.00	8103.00
	-27.00	-19.00	-6.00	12.00	8127.00	8102.00
	-18.00	-7.00	-9.00	7.00	8127.00	8103.00
	-7.00	2.00	-11.00	10.00	8127.00	8103.00
	-4.00	2.00	-4.00	10.00	8128.00	8104.00
	-11.00	-6.00	3.00	-4.00	8128.00	8104.00
	2.00	-7.00	10.00	-5.00	8128.00	8102.00
	8.00	-7.00	12.00	2.00	8128.00	8103.00
	17.00	-5.00	4.00	2.00	8128.00	8103.00
	17.00	3.00	3.00	4.00	8128.00	8104.00
	14.00	7.00	5.00	6.00	8128.00	8104.00
	21.00	6.00	3.00	3.00	8128.00	8103.00
	24.00	6.00	-4.00	1.00	8128.00	8103.00
	16.00	3.00	-5.00	1.00	8128.00	8104.00
	9.00	4.00	-6.00	3.00	8128.00	8104.00
	1.00	9.00	-7.00	-8.00	8129.00	8104.00
	-16.00	9.00	-4.00	-11.00	8128.00	8103.00
	-16.00	18.00	-3.00	-12.00	8128.00	8103.00
	-5.00	8.00	1.00	-6.00	8128.00	8103.00
	2.00	-20.00	-2.00	10.00	8128.00	8104.00
	-10.00	-25.00	-3.00	7.00	8127.00	8104.00
	-17.00	-16.00	-8.00	-3.00	8128.00	8103.00
	-23.00	-6.00	-13.00	-7.00	8128.00	8103.00
	-22.00	7.00	-14.00	-10.00	8128.00	8103.00
	-11.00	20.00	-13.00	-19.00	8128.00	8103.00
	-6.00	20.00	0.00	-16.00	8129.00	8103.00
	24.00	21.00	2.00	-7.00	8129.00	8103.00
	39.00	17.00	-3.00	-1.00	8128.00	8103.00
	43.00	5.00	-5.00	3.00	8127.00	8103.00
	26.00	-17.00	2.00	4.00	8127.00	8103.00
	9.00	-40.00	9.00	11.00	8128.00	8103.00
	13.00	-38.00	3.00	16.00	8127.00	8103.00
	10.00	-33.00	-4.00	14.00	8128.00	8103.00
	5.00	-35.00	2.00	9.00	8127.00	8103.00
	-5.00	-37.00	4.00	-3.00	8128.00	8103.00
	9.00	-11.00	3.00	-18.00	8128.00	8103.00
	20.00	16.00	4.00	-24.00	8128.00	8103.00
	2.00	41.00	3.00	-26.00	8129.00	8103.00
	-19.00	54.00	1.00	-20.00	8129.00	8104.00
	-38.00	51.00	12.00	-1.00	8129.00	8104.00
	-44.00	37.00	3.00	9.00	8128.00	8103.00
	-35.00	15.00	2.00	27.00	8128.00	8104.00
	-30.00	5.00	4.00	28.00	8128.00	8103.00
	-26.00	-9.00	5.00	14.00	8128.00	8104.00
	-26.00	-13.00	6.00	-4.00	8129.00	8103.00
	-27.00	-10.00	3.00	-11.00	8129.00	8104.00
	-31.00	-13.00	10.00	-15.00	8128.00	8103.00
	-19.00	-13.00	6.00	-17.00	8129.00	8103.00
	-8.00	-13.00	-4.00	2.00	8128.00	8103.00
	-14.00	-15.00	-13.00	13.00	8128.00	8103.00
	-3.00	0.00	-15.00	6.00	8128.00	8104.00
	-25.00	9.00	-14.00	-6.00	8129.00	8103.00
	-35.00	16.00	-6.00	-19.00	8129.00	8104.00
	-29.00	7.00	0.00	-8.00	8128.00	8103.00
	-19.00	1.00	1.00	-13.00	8128.00	8102.00
	11.00	10.00	-6.00	-23.00	8128.00	8103.00
	53.00	14.00	-10.00	-18.00	8128.00	8103.00
	53.00	3.00	-9.00	-9.00	8128.00	8103.00
	52.00	-14.00	-5.00	9.00	8127.00	8103.00
	52.00	-19.00	0.00	20.00	8128.00	8103.00
	45.00	-34.00	4.00	31.00	8128.00	8103.00
	26.00	-37.00	4.00	27.00	8128.00	8104.00
	16.00	-33.00	1.00	14.00	8128.00	8104.00
	12.00	-9.00	2.00	-1.00	8129.00	8103.00
	13.00	10.00	-3.00	-8.00	8129.00	8104.00
	5.00	11.00	-11.00	-16.00	8128.00	8103.00
	-12.00	15.00	-9.00	-15.00	8129.00	8103.00
	4.00	11.00	-5.00	-8.00	8128.00	8103.00
	14.00	10.00	1.00	-3.00	8129.00	8103.00
	13.00	15.00	-3.00	-20.00	8128.00	8103.00
	10.00	13.00	-7.00	-14.00	8128.00	8103.00
	-4.00	-11.00	-3.00	4.00	8128.00	8104.00
	-11.00	-26.00	6.00	18.00	8128.00	8103.00
	2.00	-24.00	11.00	27.00	8128.00	8103.00
	0.00	-27.00	18.00	22.00	8128.00	8103.00
	-8.00	-33.00	23.00	11.00	8128.00	8104.00
	-17.00	-33.00	18.00	0.00	8128.00	8102.00
	-20.00	-34.00	9.00	-11.00	8129.00	8103.00
	-17.00	-21.00	-2.00	-17.00	8129.00	8104.00
	-24.00	-18.00	-7.00	-12.00	8129.00	8103.00
	-13.00	-10.00	-8.00	-2.00	8128.00	8103.00
	0.00	1.00	-2.00	13.00	8128.00	8103.00
	-9.00	10.00	11.00	16.00	8128.00	8103.00
	-20.00	17.00	13.00	11.00	8128.00	8104.00
	-10.00	36.00	6.00	-1.00	8129.00	8104.00
	-11.00	42.00	3.00	-7.00	8128.00	8102.00
	-12.00	32.00	2.00	-9.00	8129.00	8103.00
	-3.00	16.00	-6.00	-14.00	8129.00	8104.00
	-2.00	-18.00	-12.00	-3.00	8128.00	8103.00
	1.00	-21.00	-13.00	1.00	8129.00	8103.00
	0.00	1.00	-11.00	-12.00	8129.00	8104.00
	-22.00	-10.00	-8.00	-10.00	8128.00	8103.00
	-22.00	-2.00	-2.00	-9.00	8128.00	8103.00
	2.00	3.00	0.00	-8.00	8129.00	8103.00
	14.00	23.00	-7.00	-10.00	8128.00	8103.00
	25.00	37.00	-11.00	-7.00	8128.00	8103.00
	34.00	16.00	-13.00	3.00	8128.00	8103.00
	28.00	8.00	-14.00	5.00	8128.00	8104.00
	26.00	6.00	2.00	10.00	8127.00	8103.00
	18.00	9.00	11.00	-1.00	8129.00	8103.00
	0.00	10.00	9.00	-8.00	8129.00	8104.00
	-5.00	13.00	9.00	-16.00	8128.00	8103.00
	-5.00	-6.00	8.00	-3.00	8129.00	8104.00
	-8.00	-9.00	-2.00	-3.00	8129.00	8104.00
	-3.00	-8.00	-3.00	-8.00	8129.00	8104.00
	1.00	-14.00	-4.00	-6.00	8129.00	8103.00
	0.00	-15.00	-3.00	-3.00	8129.00	8104.00
	10.00	-9.00	-2.00	-1.00	8129.00	8104.00
	4.00	0.00	-7.00	2.00	8128.00	8104.00
	-5.00	8.00	-11.00	-1.00	8128.00	8103.00
	-11.00	11.00	-6.00	3.00	8128.00	8104.00
	0.00	15.00	-3.00	5.00	8128.00	8103.00
	0.00	19.00	-5.00	0.00	8129.00	8104.00
	-18.00	14.00	-6.00	-5.00	8129.00	8104.00
	-35.00	17.00	-4.00	-1.00	8129.00	8103.00
	-31.00	4.00	-5.00	2.00	8128.00	8104.00
	-24.00	-6.00	3.00	-1.00	8128.00	8103.00
	-16.00	-13.00	4.00	7.00	8128.00	8103.00
	-4.00	-15.00	-6.00	19.00	8128.00	8103.00
	-3.00	-21.00	-9.00	16.00	8128.00	8103.00
	3.00	-21.00	-12.00	11.00	8128.00	8104.00
	8.00	-16.00	-4.00	3.00	8129.00	8103.00
	16.00	-15.00	5.00	-7.00	8129.00	8103.00
	12.00	-16.00	0.00	-13.00	8128.00	8103.00
	19.00	-7.00	-2.00	-14.00	8130.00	8104.00
	23.00	-3.00	3.00	-12.00	8128.00	8103.00
	15.00	-4.00	-2.00	4.00	8128.00	8103.00
	-4.00	2.00	-3.00	7.00	8128.00	8104.00
	-16.00	-5.00	8.00	0.00	8129.00	8104.00
	-7.00	0.00	12.00	-7.00	8129.00	8104.00
	-3.00	18.00	7.00	-19.00	8129.00	8104.00
	-23.00	3.00	0.00	-9.00	8129.00	8104.00
	-5.00	-6.00	-4.00	1.00	8129.00	8104.00
	15.00	1.00	-7.00	12.00	8128.00	8104.00
	8.00	-7.00	-12.00	25.00	8128.00	8104.00
	-8.00	-18.00	-5.00	27.00	8127.00	8103.00
	-12.00	-25.00	-2.00	30.00	8128.00	8104.00
	-12.00	-17.00	-8.00	6.00	8128.00	8103.00
	21.00	-8.00	-2.00	-5.00	8129.00	8103.00
	21.00	-6.00	14.00	-11.00	8129.00	8104.00
	17.00	-7.00	14.00	-11.00	8129.00	8104.00
	1.00	-5.00	10.00	-21.00	8128.00	8103.00
	9.00	-7.00	10.00	-16.00	8129.00	8104.00
	1.00	-12.00	7.00	-10.00	8128.00	8103.00
	-8.00	-10.00	4.00	-4.00	8128.00	8103.00
	-11.00	-2.00	3.00	1.00	8129.00	8103.00
	-8.00	8.00	4.00	8.00	8128.00	8103.00
	-10.00	11.00	12.00	7.00	8129.00	8104.00
	1.00	-12.00	23.00	12.00	8128.00	8103.00
	-6.00	-35.00	21.00	14.00	8128.00	8104.00
	4.00	-35.00	9.00	11.00	8128.00	8104.00
	-2.00	-19.00	-5.00	-6.00	8128.00	8103.00
	-22.00	-9.00	-12.00	-22.00	8129.00	8104.00
	-20.00	-16.00	-15.00	-18.00	8129.00	8104.00
	-34.00	-16.00	-17.00	-7.00	8128.00	8103.00
	-20.00	-13.00	-17.00	3.00	8129.00	8104.00
	-23.00	13.00	-24.00	-17.00	8129.00	8104.00
	-12.00	31.00	-15.00	-22.00	8129.00	8104.00
	1.00	46.00	7.00	-20.00	8129.00	8103.00
	9.00	42.00	11.00	-23.00	8129.00	8103.00
	26.00	55.00	11.00	-23.00	8129.00	8104.00
	22.00	26.00	11.00	-5.00	8129.00	8104.00
	27.00	6.00	3.00	0.00	8130.00	8104.00
	28.00	12.00	-9.00	3.00	8127.00	8103.00
	12.00	11.00	-3.00	9.00	8129.00	8104.00
	4.00	19.00	-2.00	6.00	8128.00	8104.00
	11.00	16.00	-3.00	10.00	8128.00	8104.00
	-2.00	7.00	8.00	18.00	8128.00	8104.00
	-8.00	-10.00	-3.00	30.00	8127.00	8103.00
	-7.00	-12.00	-9.00	24.00	8128.00	8104.00
	-13.00	-8.00	0.00	17.00	8128.00	8104.00
	-2.00	-2.00	5.00	4.00	8128.00	8103.00
	7.00	9.00	-2.00	-12.00	8128.00	8103.00
	-4.00	10.00	-4.00	-15.00	8128.00	8103.00
	-14.00	13.00	-2.00	-8.00	8129.00	8104.00
	-11.00	5.00	-6.00	3.00	8128.00	8103.00
	0.00	12.00	-7.00	-7.00	8130.00	8104.00
	5.00	15.00	-10.00	-8.00	8129.00	8104.00
	9.00	7.00	-11.00	-14.00	8128.00	8103.00
	17.00	3.00	-10.00	-18.00	8128.00	8103.00
	16.00	3.00	-11.00	-20.00	8129.00	8103.00
	0.00	-16.00	-6.00	-4.00	8129.00	8104.00
	-7.00	-24.00	0.00	-2.00	8129.00	8104.00
	-4.00	-27.00	3.00	1.00	8128.00	8104.00
	15.00	-22.00	3.00	1.00	8129.00	8103.00
	15.00	-19.00	-6.00	-4.00	8129.00	8104.00
	-5.00	-17.00	-10.00	-6.00	8128.00	8103.00
	-17.00	-9.00	-7.00	-8.00	8129.00	8103.00
	-20.00	-15.00	3.00	3.00	8127.00	8103.00
	-14.00	-17.00	5.00	14.00	8127.00	8103.00
	-12.00	-9.00	2.00	17.00	8128.00	8104.00
	-9.00	-10.00	6.00	13.00	8129.00	8104.00
	-17.00	-9.00	11.00	8.00	8128.00	8104.00
	-16.00	2.00	9.00	-7.00	8129.00	8103.00
	-9.00	-9.00	8.00	-12.00	8129.00	8104.00
	-4.00	-21.00	4.00	-5.00	8129.00	8104.00
	8.00	-19.00	0.00	-2.00	8129.00	8103.00
	13.00	-9.00	-4.00	-2.00	8128.00	8103.00
	25.00	-2.00	-11.00	8.00	8128.00	8103.00
	13.00	4.00	-10.00	12.00	8128.00	8104.00
	-2.00	15.00	-8.00	12.00	8128.00	8104.00
	-7.00	17.00	-12.00	10.00	8128.00	8103.00
	-4.00	9.00	-14.00	5.00	8128.00	8103.00
	-11.00	1.00	-7.00	4.00	8128.00	8104.00
	-13.00	5.00	-11.00	-11.00	8129.00	8104.00
	-10.00	9.00	-7.00	-18.00	8129.00	8104.00
	-6.00	-2.00	5.00	-22.00	8129.00	8104.00
	3.00	-19.00	7.00	-13.00	8128.00	8103.00
	-5.00	-25.00	13.00	0.00	8129.00	8104.00
	3.00	-13.00	18.00	-1.00	8129.00	8104.00
	16.00	3.00	11.00	-5.00	8129.00	8104.00
	31.00	23.00	4.00	-6.00	8128.00	8103.00
	27.00	31.00	11.00	-2.00	8129.00	8104.00
	18.00	29.00	3.00	5.00	8128.00	8104.00
	-2.00	5.00	3.00	25.00	8128.00	8104.00
	3.00	-22.00	3.00	19.00	8128.00	8103.00
	2.00	-35.00	-7.00	4.00	8128.00	8103.00
	9.00	-42.00	-4.00	-8.00	8129.00	8104.00
	18.00	-62.00	5.00	5.00	8129.00	8104.00
	12.00	-52.00	5.00	6.00	8129.00	8104.00
	5.00	-36.00	-2.00	11.00	8128.00	8103.00
	-16.00	-16.00	-9.00	1.00	8129.00	8104.00
	-39.00	4.00	-13.00	-14.00	8129.00	8103.00
	-41.00	30.00	-20.00	-30.00	8129.00	8104.00
	-34.00	45.00	-20.00	-39.00	8128.00	8103.00
	-30.00	47.00	-15.00	-37.00	8129.00	8104.00
	-14.00	40.00	-15.00	-19.00	8129.00	8103.00
	0.00	32.00	0.00	-3.00	8129.00	8103.00
	10.00	24.00	10.00	18.00	8128.00	8103.00
	47.00	27.00	21.00	31.00	8127.00	8103.00
	40.00	33.00	23.00	43.00	8128.00	8103.00
	9.00	36.00	31.00	44.00	8128.00	8104.00
	-20.00	34.00	31.00	18.00	8128.00	8103.00
	-21.00	11.00	21.00	5.00	8128.00	8104.00
	-20.00	0.00	18.00	-4.00	8129.00	8104.00
	-19.00	4.00	3.00	-21.00	8128.00	8103.00
	-7.00	-3.00	2.00	-21.00	8128.00	8103.00
	-13.00	-19.00	-6.00	-15.00	8129.00	8104.00
	-29.00	-33.00	-12.00	-18.00	8129.00	8104.00
	-39.00	-35.00	-7.00	-24.00	8129.00	8103.00
	-8.00	-35.00	-18.00	-16.00	8128.00	8102.00
	6.00	-36.00	-27.00	-10.00	8129.00	8104.00
	10.00	-32.00	-23.00	-4.00	8129.00	8104.00
	15.00	-27.00	-12.00	8.00	8128.00	8103.00
	-2.00	-29.00	0.00	6.00	8128.00	8103.00
	-3.00	-15.00	5.00	1.00	8128.00	8103.00
	-8.00	-1.00	13.00	1.00	8128.00	8103.00
	-14.00	10.00	18.00	-9.00	8129.00	8103.00
	-7.00	15.00	7.00	-7.00	8128.00	8103.00
	5.00	18.00	3.00	8.00	8128.00	8103.00
	-12.00	29.00	2.00	0.00	8128.00	8103.00
	-16.00	24.00	-4.00	0.00	8127.00	8102.00
	2.00	20.00	-7.00	0.00	8128.00	8103.00
	15.00	-8.00	-9.00	2.00	8128.00	8103.00
	18.00	-22.00	-16.00	-3.00	8129.00	8103.00
	22.00	-34.00	-12.00	-4.00	8128.00	8102.00
	32.00	-31.00	-8.00	-4.00	8129.00	8104.00
	35.00	-21.00	-9.00	-2.00	8129.00	8103.00
	28.00	-20.00	-8.00	1.00	8128.00	8103.00
	16.00	-22.00	-9.00	12.00	8127.00	8103.00
	0.00	-4.00	-11.00	3.00	8127.00	8103.00
	8.00	8.00	-12.00	-3.00	8128.00	8103.00
	24.00	16.00	-9.00	1.00	8128.00	8102.00
	11.00	22.00	-7.00	-4.00	8128.00	8103.00
	-4.00	23.00	-11.00	-11.00	8128.00	8103.00
	-9.00	17.00	-4.00	-9.00	8128.00	8103.00
	-10.00	16.00	-5.00	-7.00	8128.00	8102.00
	-7.00	10.00	-3.00	-1.00	8129.00	8103.00
	-19.00	9.00	3.00	-5.00	8129.00	8103.00
	-20.00	8.00	6.00	0.00	8129.00	8103.00
	-15.00	6.00	6.00	-2.00	8128.00	8103.00
	-14.00	5.00	3.00	-7.00	8128.00	8103.00
	-7.00	6.00	8.00	-2.00	8129.00	8103.00
	6.00	-8.00	15.00	14.00	8128.00	8103.00
	1.00	-17.00	4.00	20.00	8127.00	8103.00
	0.00	-40.00	1.00	31.00	8128.00	8103.00
	-5.00	-44.00	6.00	21.00	8127.00	8103.00
	1.00	-42.00	12.00	14.00	8128.00	8103.00
	-6.00	-40.00	14.00	11.00	8128.00	8103.00
	9.00	-26.00	14.00	6.00	8127.00	8103.00
	19.00	-8.00	9.00	-4.00	8129.00	8104.00
	39.00	7.00	-6.00	-13.00	8129.00	8103.00
	52.00	5.00	-7.00	-11.00	8128.00	8103.00
	34.00	15.00	-6.00	-15.00	8128.00	8103.00
	15.00	27.00	-6.00	-19.00	8128.00	8103.00
	2.00	29.00	-10.00	-12.00	8128.00	8103.00
	-16.00	28.00	-12.00	-3.00	8128.00	8103.00
	-28.00	17.00	-16.00	-6.00	8129.00	8103.00
	-41.00	11.00	-12.00	-10.00	8128.00	8102.00
	-56.00	10.00	-3.00	-24.00	8128.00	8102.00
	-56.00	8.00	5.00	-20.00	8128.00	8103.00
	-54.00	5.00	11.00	-12.00	8128.00	8103.00
	-39.00	12.00	4.00	-4.00	8129.00	8103.00
	-22.00	13.00	-7.00	13.00	8127.00	8103.00
	-7.00	7.00	-6.00	15.00	8127.00	8103.00
	7.00	15.00	-5.00	9.00	8127.00	8103.00
	10.00	29.00	-9.00	1.00	8129.00	8103.00
	2.00	0.00	-9.00	13.00	8127.00	8103.00
	-5.00	-26.00	-7.00	-2.00	8128.00	8102.00
	4.00	-25.00	-9.00	-12.00	8128.00	8103.00
	17.00	-16.00	1.00	-17.00	8128.00	8103.00
	31.00	-13.00	14.00	-15.00	8128.00	8102.00
	49.00	-14.00	2.00	7.00	8127.00	8102.00
	49.00	-12.00	-11.00	6.00	8127.00	8102.00
	38.00	-12.00	-10.00	12.00	8127.00	8103.00
	25.00	-17.00	1.00	5.00	8128.00	8103.00
	10.00	-15.00	6.00	-10.00	8127.00	8102.00
	1.00	-7.00	2.00	-3.00	8127.00	8102.00
	-3.00	-1.00	14.00	6.00	8127.00	8102.00
	11.00	11.00	22.00	-1.00	8128.00	8103.00
	21.00	14.00	20.00	-4.00	8128.00	8103.00
	8.00	20.00	19.00	-8.00	8128.00	8103.00
	-19.00	23.00	11.00	-11.00	8128.00	8103.00
	-29.00	19.00	5.00	-13.00	8128.00	8103.00
	-32.00	9.00	-11.00	-13.00	8128.00	8103.00
	-42.00	1.00	-12.00	-16.00	8128.00	8103.00
	-41.00	-7.00	-14.00	-6.00	8128.00	8103.00
	-30.00	-27.00	-7.00	16.00	8128.00	8103.00
	-18.00	-47.00	-8.00	29.00	8127.00	8103.00
	-27.00	-51.00	-10.00	18.00	8127.00	8102.00
	-27.00	-44.00	-8.00	7.00	8127.00	8103.00
	-5.00	-38.00	-3.00	2.00	8128.00	8103.00
	-12.00	-32.00	4.00	-5.00	8128.00	8102.00
	-7.00	-20.00	3.00	-13.00	8128.00	8103.00
	-3.00	-6.00	1.00	-15.00	8129.00	8103.00
	3.00	8.00	-4.00	-20.00	8128.00	8103.00
	10.00	17.00	-11.00	-16.00	8128.00	8103.00
	12.00	26.00	-6.00	-4.00	8128.00	8103.00
	10.00	28.00	-6.00	9.00	8128.00	8103.00
	8.00	18.00	-7.00	25.00	8127.00	8103.00
	-9.00	-4.00	2.00	29.00	8128.00	8103.00
	-16.00	-4.00	6.00	14.00	8127.00	8103.00
	-2.00	-2.00	6.00	3.00	8128.00	8102.00
	5.00	-4.00	2.00	1.00	8128.00	8102.00
	4.00	1.00	6.00	-6.00	8128.00	8102.00
	9.00	-10.00	-2.00	-5.00	8129.00	8103.00
	17.00	-5.00	1.00	-5.00	8129.00	8103.00
	21.00	6.00	2.00	-10.00	8128.00	8103.00
	20.00	4.00	-2.00	-18.00	8128.00	8103.00
	19.00	-30.00	-7.00	-16.00	8128.00	8103.00
	20.00	-38.00	-11.00	-18.00	8128.00	8103.00
	17.00	-36.00	-12.00	-15.00	8129.00	8103.00
	8.00	-36.00	-12.00	-1.00	8128.00	8103.00
	24.00	-14.00	-8.00	8.00	8127.00	8103.00
	46.00	7.00	1.00	13.00	8128.00	8103.00
	46.00	33.00	2.00	15.00	8127.00	8103.00
	26.00	71.00	5.00	18.00	8127.00	8102.00
	-2.00	86.00	11.00	20.00	8128.00	8103.00
	-31.00	91.00	17.00	7.00	8128.00	8103.00
	-56.00	64.00	20.00	-6.00	8128.00	8103.00
	-58.00	27.00	14.00	-2.00	8128.00	8103.00
	-47.00	7.00	8.00	-9.00	8129.00	8103.00
	-15.00	2.00	3.00	-19.00	8128.00	8103.00
	11.00	-10.00	1.00	-14.00	8128.00	8103.00
	2.00	-16.00	-3.00	-13.00	8128.00	8102.00
	0.00	-30.00	0.00	2.00	8127.00	8102.00
	-2.00	-29.00	2.00	0.00	8129.00	8103.00
	-5.00	-26.00	-2.00	-1.00	8128.00	8103.00
	-11.00	-22.00	-7.00	-7.00	8128.00	8103.00
	-8.00	-29.00	-6.00	-3.00	8129.00	8104.00
	-6.00	-29.00	-7.00	4.00	8128.00	8103.00
	0.00	-23.00	-11.00	3.00	8127.00	8103.00
	0.00	-16.00	-10.00	-3.00	8128.00	8103.00
	-17.00	-17.00	-12.00	-10.00	8128.00	8103.00
	-18.00	-16.00	-11.00	-7.00	8128.00	8103.00
	-17.00	-14.00	-3.00	0.00	8128.00	8103.00
	0.00	0.00	-4.00	1.00	8128.00	8103.00
	-3.00	6.00	-9.00	8.00	8127.00	8103.00
	1.00	17.00	-16.00	0.00	8128.00	8103.00
	6.00	23.00	-16.00	-8.00	8128.00	8103.00
	5.00	19.00	-16.00	-13.00	8128.00	8103.00
	1.00	33.00	-13.00	-21.00	8129.00	8103.00
	4.00	36.00	-9.00	-24.00	8128.00	8103.00
	9.00	6.00	3.00	-1.00	8128.00	8103.00
	16.00	-10.00	10.00	8.00	8128.00	8104.00
	29.00	-9.00	9.00	6.00	8128.00	8103.00
	53.00	-12.00	7.00	3.00	8127.00	8103.00
	47.00	-7.00	1.00	3.00	8127.00	8103.00
	41.00	-9.00	-2.00	12.00	8127.00	8103.00
	36.00	-5.00	4.00	12.00	8128.00	8103.00
	14.00	-2.00	4.00	6.00	8128.00	8103.00
	-22.00	-24.00	4.00	16.00	8128.00	8104.00
	-41.00	-36.00	9.00	18.00	8127.00	8103.00
	-52.00	-34.00	11.00	18.00	8127.00	8102.00
	-55.00	-27.00	15.00	13.00	8128.00	8103.00
	-42.00	-12.00	17.00	-1.00	8129.00	8103.00
	-41.00	-4.00	15.00	-15.00	8128.00	8103.00
	-25.00	10.00	12.00	-16.00	8129.00	8103.00
	-6.00	19.00	11.00	-14.00	8129.00	8104.00
	0.00	21.00	3.00	-16.00	8128.00	8103.00
	15.00	20.00	-4.00	-15.00	8129.00	8103.00
	26.00	23.00	-9.00	-16.00	8129.00	8103.00
	30.00	26.00	-13.00	-16.00	8128.00	8103.00
	43.00	17.00	-14.00	-12.00	8129.00	8103.00
	52.00	5.00	-13.00	-8.00	8129.00	8104.00
	30.00	-13.00	-9.00	-4.00	8128.00	8102.00
	17.00	-36.00	-2.00	5.00	8128.00	8103.00
	-9.00	-41.00	-5.00	5.00	8128.00	8103.00
	-31.00	-27.00	-3.00	-5.00	8128.00	8103.00
	-38.00	-17.00	4.00	-14.00	8129.00	8104.00
	-37.00	-16.00	2.00	-4.00	8129.00	8103.00
	-21.00	-20.00	-3.00	14.00	8128.00	8103.00
	-17.00	-15.00	-3.00	10.00	8128.00	8103.00
	-29.00	-8.00	-2.00	-6.00	8128.00	8103.00
	-18.00	9.00	3.00	-16.00	8128.00	8103.00
	17.00	7.00	4.00	-4.00	8129.00	8103.00
	19.00	-2.00	4.00	16.00	8128.00	8103.00
	17.00	11.00	5.00	17.00	8128.00	8103.00
	8.00	11.00	6.00	14.00	8127.00	8103.00
	-5.00	10.00	0.00	22.00	8127.00	8103.00
	-12.00	10.00	-5.00	35.00	8128.00	8103.00
	-19.00	10.00	4.00	36.00	8128.00	8103.00
	-36.00	8.00	10.00	8.00	8127.00	8102.00
	-51.00	13.00	17.00	-4.00	8129.00	8103.00
	-18.00	10.00	16.00	-5.00	8128.00	8103.00
	-12.00	15.00	8.00	-15.00	8128.00	8103.00
	-7.00	13.00	-5.00	-26.00	8128.00	8103.00
	6.00	4.00	-8.00	-26.00	8128.00	8103.00
	7.00	-17.00	-4.00	-22.00	8128.00	8103.00
	13.00	-23.00	-5.00	-12.00	8129.00	8103.00
	13.00	-25.00	-11.00	-6.00	8128.00	8102.00
	9.00	-19.00	-14.00	0.00	8128.00	8102.00
	9.00	-9.00	-12.00	1.00	8128.00	8102.00
	16.00	11.00	-18.00	-3.00	8128.00	8103.00
	17.00	15.00	-16.00	4.00	8127.00	8103.00
	14.00	5.00	-8.00	4.00	8127.00	8102.00
	32.00	-5.00	2.00	10.00	8127.00	8102.00
	28.00	-16.00	5.00	9.00	8127.00	8103.00
	19.00	-7.00	-5.00	-12.00	8128.00	8103.00
	8.00	-1.00	-11.00	-16.00	8128.00	8104.00
	-4.00	5.00	-8.00	-12.00	8128.00	8103.00
	-6.00	7.00	-7.00	1.00	8127.00	8103.00
	-8.00	8.00	-6.00	7.00	8127.00	8103.00
	-8.00	-2.00	-4.00	9.00	8127.00	8103.00
	-8.00	2.00	0.00	-3.00	8129.00	8103.00
	-10.00	1.00	-10.00	-15.00	8128.00	8102.00
	-2.00	-9.00	-12.00	-18.00	8128.00	8103.00
	5.00	-21.00	-11.00	-21.00	8128.00	8102.00
	6.00	-20.00	-4.00	-16.00	8128.00	8102.00
	6.00	0.00	-3.00	-8.00	8128.00	8103.00
	7.00	21.00	1.00	-1.00	8128.00	8103.00
	12.00	19.00	11.00	10.00	8127.00	8102.00
	6.00	31.00	3.00	2.00	8127.00	8103.00
	0.00	31.00	-2.00	-7.00	8129.00	8103.00
	1.00	18.00	1.00	-7.00	8128.00	8102.00
	-5.00	6.00	4.00	-9.00	8129.00	8103.00
	-17.00	0.00	7.00	-10.00	8128.00	8102.00
	-7.00	-11.00	16.00	7.00	8127.00	8103.00
	12.00	-22.00	19.00	17.00	8127.00	8102.00
	18.00	-22.00	9.00	16.00	8127.00	8103.00
	11.00	-23.00	4.00	27.00	8128.00	8103.00
	-9.00	3.00	-2.00	15.00	8127.00	8102.00
	-31.00	15.00	-3.00	3.00	8128.00	8104.00
	-45.00	13.00	-3.00	-1.00	8128.00	8103.00
	-38.00	4.00	3.00	3.00	8127.00	8103.00
	-16.00	-5.00	7.00	13.00	8128.00	8103.00
	2.00	-17.00	1.00	14.00	8127.00	8102.00
	5.00	-27.00	-4.00	6.00	8127.00	8102.00
	3.00	-33.00	0.00	1.00	8128.00	8103.00
	-5.00	-39.00	5.00	-11.00	8128.00	8103.00
	10.00	-38.00	5.00	-13.00	8128.00	8103.00
	5.00	-30.00	1.00	-7.00	8128.00	8103.00
	6.00	-35.00	7.00	5.00	8128.00	8103.00
	-2.00	-14.00	12.00	-4.00	8127.00	8102.00
	4.00	16.00	4.00	-14.00	8127.00	8102.00
	18.00	34.00	-7.00	-18.00	8128.00	8103.00
	29.00	42.00	-13.00	-21.00	8128.00	8103.00
	47.00	36.00	-14.00	-22.00	8128.00	8103.00
	41.00	22.00	-10.00	-12.00	8128.00	8103.00
	26.00	23.00	-11.00	-13.00	8128.00	8103.00
	2.00	12.00	-11.00	-1.00	8128.00	8103.00
	-15.00	-23.00	-8.00	5.00	8127.00	8103.00
	-26.00	-29.00	-6.00	8.00	8127.00	8103.00
	-29.00	-35.00	12.00	12.00	8128.00	8103.00
	-21.00	-27.00	13.00	26.00	8127.00	8102.00
	-17.00	-20.00	8.00	35.00	8128.00	8103.00
	-38.00	-24.00	0.00	24.00	8128.00	8103.00
	-47.00	-10.00	-7.00	8.00	8127.00	8102.00
	-37.00	10.00	-4.00	0.00	8128.00	8103.00
	-29.00	17.00	6.00	-6.00	8128.00	8103.00
	-27.00	26.00	-4.00	-13.00	8128.00	8103.00
	-21.00	29.00	-4.00	-20.00	8128.00	8103.00
	-16.00	10.00	0.00	-18.00	8129.00	8103.00
	-8.00	3.00	1.00	-13.00	8130.00	8104.00
	-3.00	4.00	1.00	-19.00	8128.00	8103.00
	3.00	12.00	4.00	-20.00	8129.00	8104.00
	7.00	16.00	2.00	-17.00	8128.00	8103.00
	9.00	17.00	7.00	-17.00	8129.00	8103.00
	17.00	12.00	2.00	-8.00	8129.00	8104.00
	21.00	11.00	-7.00	-8.00	8128.00	8103.00
	26.00	17.00	-13.00	-16.00	8129.00	8104.00
	24.00	16.00	-16.00	-16.00	8128.00	8103.00
	21.00	8.00	-16.00	-7.00	8128.00	8103.00
	12.00	-3.00	-16.00	6.00	8128.00	8103.00
	5.00	-5.00	-13.00	9.00	8127.00	8103.00
	5.00	-13.00	-9.00	19.00	8127.00	8103.00
	19.00	-33.00	-9.00	24.00	8128.00	8104.00
	17.00	-41.00	-9.00	23.00	8127.00	8103.00
	8.00	-38.00	-5.00	14.00	8128.00	8103.00
	1.00	-36.00	4.00	15.00	8127.00	8103.00
	-7.00	-26.00	9.00	9.00	8128.00	8103.00
	-11.00	-20.00	9.00	6.00	8127.00	8103.00
	-15.00	-15.00	14.00	7.00	8127.00	8103.00
	-5.00	-4.00	10.00	3.00	8128.00	8103.00
	15.00	-12.00	13.00	-1.00	8128.00	8102.00
	11.00	-11.00	17.00	-8.00	8129.00	8103.00
	-3.00	-1.00	19.00	-22.00	8128.00	8103.00
	-17.00	0.00	9.00	-24.00	8129.00	8103.00
	-13.00	8.00	2.00	-17.00	8129.00	8104.00
	-10.00	22.00	-4.00	-11.00	8129.00	8103.00
	-7.00	33.00	-9.00	-8.00	8129.00	8103.00
	-3.00	34.00	-8.00	2.00	8128.00	8104.00
	5.00	27.00	-8.00	17.00	8126.00	8102.00
	4.00	16.00	-10.00	14.00	8127.00	8102.00
	-7.00	7.00	-8.00	2.00	8128.00	8104.00
	-4.00	3.00	-6.00	-7.00	8129.00	8103.00
	12.00	-13.00	-6.00	-7.00	8128.00	8104.00
	18.00	-23.00	-3.00	-15.00	8129.00	8103.00
	23.00	-34.00	1.00	-2.00	8129.00	8103.00
	34.00	-44.00	-2.00	20.00	8128.00	8103.00
	33.00	-35.00	1.00	11.00	8128.00	8104.00
	10.00	-24.00	3.00	2.00	8128.00	8104.00
	-8.00	-9.00	3.00	-3.00	8128.00	8103.00
	-14.00	20.00	0.00	-16.00	8128.00	8103.00
	-15.00	32.00	-3.00	-16.00	8129.00	8103.00
	-13.00	46.00	-7.00	-19.00	8128.00	8103.00
	-12.00	37.00	-8.00	-16.00	8128.00	8102.00
	12.00	9.00	-11.00	-6.00	8129.00	8104.00
	33.00	-12.00	-14.00	3.00	8128.00	8104.00
	11.00	-16.00	-12.00	5.00	8127.00	8103.00
	2.00	5.00	-11.00	-5.00	8128.00	8103.00
	20.00	20.00	-10.00	-10.00	8129.00	8103.00
	22.00	27.00	-19.00	-4.00	8129.00	8104.00
	-7.00	21.00	-6.00	4.00	8128.00	8103.00
	-23.00	4.00	13.00	20.00	8128.00	8103.00
	-40.00	6.00	14.00	19.00	8127.00	8103.00
	-51.00	18.00	11.00	1.00	8128.00	8103.00
	-52.00	4.00	14.00	-5.00	8128.00	8103.00
	-35.00	-31.00	24.00	-1.00	8128.00	8103.00
	-24.00	-57.00	21.00	22.00	8127.00	8103.00
	-31.00	-56.00	18.00	25.00	8128.00	8104.00
	-24.00	-43.00	14.00	18.00	8127.00	8103.00
	-12.00	-32.00	6.00	9.00	8128.00	8104.00
	3.00	-26.00	2.00	9.00	8128.00	8103.00
	3.00	-11.00	-2.00	2.00	8128.00	8104.00
	-6.00	2.00	7.00	0.00	8128.00	8103.00
	-15.00	8.00	9.00	-5.00	8128.00	8103.00
	-19.00	37.00	6.00	-22.00	8128.00	8103.00
	-13.00	50.00	1.00	-19.00	8128.00	8103.00
	0.00	43.00	-3.00	-18.00	8128.00	8103.00
	8.00	31.00	-5.00	-18.00	8128.00	8103.00
	9.00	5.00	-9.00	-11.00	8128.00	8103.00
	16.00	-21.00	-8.00	-4.00	8128.00	8103.00
	27.00	-25.00	-12.00	-4.00	8128.00	8103.00
	22.00	-27.00	-11.00	-5.00	8128.00	8102.00
	19.00	-27.00	-15.00	-5.00	8128.00	8102.00
	17.00	-19.00	-17.00	-4.00	8128.00	8102.00
	12.00	-9.00	-16.00	-5.00	8129.00	8103.00
	8.00	-3.00	-12.00	-3.00	8128.00	8103.00
	10.00	7.00	-10.00	-3.00	8128.00	8103.00
	14.00	16.00	-9.00	-3.00	8128.00	8103.00
	12.00	22.00	-9.00	-5.00	8128.00	8103.00
	10.00	20.00	-3.00	-3.00	8128.00	8103.00
	6.00	4.00	0.00	2.00	8128.00	8104.00
	5.00	0.00	2.00	1.00	8127.00	8103.00
	8.00	1.00	4.00	-1.00	8128.00	8103.00
	2.00	2.00	7.00	-4.00	8128.00	8103.00
	6.00	4.00	3.00	-4.00	8128.00	8103.00
	4.00	8.00	-3.00	-7.00	8128.00	8103.00
	1.00	17.00	-5.00	-8.00	8128.00	8103.00
	4.00	18.00	-10.00	-9.00	8128.00	8103.00
	22.00	12.00	-14.00	-1.00	8128.00	8103.00
	15.00	1.00	-13.00	3.00	8128.00	8103.00
	5.00	-8.00	-9.00	1.00	8128.00	8103.00
	5.00	-6.00	3.00	-3.00	8128.00	8103.00
	-2.00	-16.00	0.00	4.00	8127.00	8103.00
	-10.00	-21.00	-2.00	15.00	8127.00	8103.00
	-25.00	-14.00	-5.00	11.00	8127.00	8103.00
	-17.00	-17.00	-7.00	8.00	8127.00	8103.00
	-15.00	-31.00	16.00	10.00	8127.00	8103.00
	-20.00	-41.00	24.00	16.00	8127.00	8103.00
	-24.00	-34.00	21.00	6.00	8127.00	8103.00
	-26.00	-39.00	13.00	-10.00	8128.00	8103.00
	2.00	-26.00	4.00	-21.00	8128.00	8103.00
	50.00	4.00	-5.00	-20.00	8129.00	8104.00
	66.00	24.00	-5.00	-14.00	8128.00	8103.00
	56.00	35.00	-9.00	-15.00	8128.00	8103.00
	30.00	37.00	-11.00	-6.00	8130.00	8104.00
	11.00	20.00	-12.00	7.00	8127.00	8103.00
	-12.00	14.00	-11.00	3.00	8128.00	8103.00
	-15.00	12.00	-16.00	2.00	8128.00	8104.00
	-28.00	-16.00	-4.00	12.00	8128.00	8104.00
	-43.00	-39.00	-3.00	13.00	8128.00	8103.00
	-48.00	-56.00	-3.00	28.00	8128.00	8104.00
	-65.00	-51.00	10.00	4.00	8128.00	8104.00
	-56.00	-42.00	25.00	7.00	8128.00	8104.00
	-23.00	-29.00	22.00	18.00	8128.00	8103.00
	-4.00	1.00	12.00	13.00	8128.00	8103.00
	-6.00	19.00	4.00	8.00	8127.00	8102.00
	-9.00	28.00	6.00	-7.00	8128.00	8103.00
	-2.00	38.00	4.00	-11.00	8128.00	8103.00
	-16.00	46.00	0.00	-20.00	8128.00	8102.00
	-18.00	22.00	10.00	-17.00	8129.00	8103.00
	-18.00	-5.00	22.00	-18.00	8129.00	8104.00
	-19.00	-9.00	19.00	-21.00	8129.00	8104.00
	-14.00	-31.00	23.00	-5.00	8129.00	8104.00
	-9.00	-30.00	15.00	0.00	8129.00	8104.00
	-9.00	-21.00	-2.00	-1.00	8128.00	8103.00
	-13.00	-14.00	-12.00	-3.00	8129.00	8103.00
	-6.00	-9.00	-10.00	4.00	8127.00	8103.00
	0.00	8.00	-15.00	6.00	8128.00	8103.00
	12.00	33.00	-16.00	2.00	8128.00	8104.00
	21.00	48.00	-10.00	-7.00	8129.00	8104.00
	14.00	45.00	-8.00	-12.00	8129.00	8104.00
	8.00	35.00	-12.00	-16.00	8128.00	8103.00
	22.00	20.00	-11.00	-9.00	8129.00	8104.00
	23.00	9.00	-9.00	-13.00	8128.00	8103.00
	21.00	0.00	-7.00	-13.00	8128.00	8104.00
	25.00	-18.00	-6.00	-6.00	8128.00	8103.00
	25.00	-16.00	-5.00	-4.00	8128.00	8103.00
	18.00	-13.00	-7.00	-2.00	8129.00	8104.00
	16.00	-8.00	-5.00	-3.00	8129.00	8104.00
	14.00	-7.00	-7.00	-4.00	8128.00	8103.00
	13.00	-3.00	-10.00	-5.00	8129.00	8104.00
	12.00	-1.00	-11.00	-4.00	8129.00	8103.00
	7.00	-9.00	-10.00	4.00	8128.00	8103.00
	2.00	-30.00	-7.00	5.00	8128.00	8104.00
	0.00	-26.00	-7.00	0.00	8129.00	8104.00
	3.00	-17.00	-7.00	-3.00	8129.00	8104.00
	1.00	-7.00	-7.00	1.00	8129.00	8104.00
	-2.00	-3.00	2.00	2.00	8128.00	8104.00
	3.00	1.00	7.00	5.00	8128.00	8103.00
	8.00	9.00	5.00	7.00	8128.00	8103.00
	18.00	20.00	3.00	8.00	8128.00	8104.00
	10.00	24.00	2.00	8.00	8127.00	8103.00
	5.00	37.00	3.00	-1.00	8129.00	8104.00
	-3.00	29.00	0.00	-3.00	8129.00	8103.00
	-13.00	4.00	-2.00	-3.00	8129.00	8104.00
	-18.00	-11.00	1.00	1.00	8128.00	8103.00
	-28.00	-21.00	0.00	0.00	8129.00	8104.00
	-26.00	-17.00	-4.00	0.00	8129.00	8103.00
	-20.00	-20.00	-4.00	1.00	8129.00	8104.00
	-19.00	-21.00	-4.00	0.00	8128.00	8103.00
	-12.00	-15.00	-6.00	-2.00	8128.00	8103.00
	-12.00	-14.00	-8.00	4.00	8127.00	8103.00
	-10.00	-8.00	-7.00	5.00	8128.00	8103.00
	4.00	12.00	-9.00	4.00	8128.00	8104.00
	17.00	22.00	-8.00	-5.00	8128.00	8103.00
	26.00	27.00	-4.00	-11.00	8129.00	8104.00
	20.00	28.00	1.00	-14.00	8129.00	8104.00
	13.00	22.00	2.00	-13.00	8128.00	8103.00
	9.00	22.00	0.00	-12.00	8128.00	8104.00
	3.00	28.00	-6.00	-25.00	8128.00	8103.00
	21.00	18.00	-8.00	-20.00	8128.00	8103.00
	12.00	-2.00	1.00	0.00	8129.00	8104.00
	-8.00	-29.00	4.00	22.00	8128.00	8103.00
	-34.00	-56.00	6.00	41.00	8127.00	8103.00
	-59.00	-53.00	12.00	21.00	8128.00	8104.00
	-67.00	-43.00	12.00	3.00	8128.00	8103.00
	-66.00	-38.00	22.00	-7.00	8128.00	8103.00
	-29.00	-42.00	24.00	7.00	8127.00	8103.00
	-4.00	-47.00	17.00	21.00	8128.00	8104.00
	1.00	-40.00	17.00	19.00	8128.00	8103.00
	-4.00	-23.00	11.00	7.00	8128.00	8104.00
	9.00	-10.00	6.00	3.00	8128.00	8104.00
	15.00	0.00	-4.00	1.00	8128.00	8103.00
	16.00	5.00	-7.00	-7.00	8128.00	8103.00
	26.00	9.00	-10.00	-12.00	8128.00	8104.00
	32.00	14.00	-12.00	-15.00	8129.00	8103.00
	30.00	22.00	-15.00	-13.00	8128.00	8104.00
	21.00	16.00	-15.00	-12.00	8129.00	8104.00
	12.00	14.00	-23.00	-15.00	8128.00	8103.00
	7.00	21.00	-26.00	-23.00	8128.00	8103.00
	16.00	19.00	-29.00	-18.00	8128.00	8103.00
	15.00	20.00	-18.00	-12.00	8129.00	8104.00
	9.00	10.00	17.00	-6.00	8128.00	8104.00
	28.00	-6.00	-6.00	1.00	8128.00	8104.00
	27.00	-11.00	-19.00	10.00	8127.00	8103.00
	8.00	-19.00	-13.00	19.00	8127.00	8102.00
	-13.00	-18.00	26.00	39.00	8127.00	8103.00
	-29.00	-22.00	33.00	30.00	8127.00	8102.00
	-32.00	-16.00	28.00	10.00	8127.00	8103.00
	-37.00	-6.00	33.00	4.00	8128.00	8103.00
	-43.00	6.00	24.00	-11.00	8128.00	8103.00
	-26.00	19.00	16.00	-16.00	8128.00	8103.00
	6.00	35.00	12.00	-17.00	8128.00	8102.00
	31.00	43.00	7.00	-15.00	8128.00	8103.00
	36.00	34.00	0.00	-16.00	8128.00	8103.00
	36.00	20.00	-6.00	-11.00	8128.00	8103.00
	14.00	6.00	-11.00	-9.00	8128.00	8103.00
	-10.00	4.00	-17.00	-10.00	8128.00	8103.00
	5.00	-2.00	-18.00	-6.00	8128.00	8103.00
	8.00	-6.00	-20.00	-1.00	8128.00	8103.00
	14.00	-7.00	-21.00	-4.00	8129.00	8103.00
	-7.00	-11.00	-21.00	-7.00	8129.00	8103.00
	-36.00	-10.00	-14.00	-10.00	8128.00	8102.00
	-47.00	-11.00	-13.00	-11.00	8128.00	8103.00
	-46.00	-5.00	-11.00	-4.00	8127.00	8102.00
	-30.00	-3.00	-2.00	11.00	8127.00	8102.00
	-25.00	-13.00	7.00	20.00	8127.00	8102.00
	-11.00	-18.00	12.00	21.00	8128.00	8103.00
	-5.00	-16.00	7.00	11.00	8127.00	8103.00
	-22.00	-13.00	2.00	-3.00	8128.00	8102.00
	-30.00	-22.00	-6.00	-12.00	8127.00	8102.00
	-18.00	-26.00	0.00	-12.00	8129.00	8104.00
	-18.00	-20.00	8.00	-5.00	8128.00	8103.00
	-11.00	0.00	15.00	-8.00	8128.00	8103.00
	-4.00	19.00	13.00	-11.00	8128.00	8103.00
	25.00	28.00	5.00	-11.00	8128.00	8103.00
	43.00	44.00	3.00	-16.00	8128.00	8103.00
	56.00	41.00	2.00	-17.00	8128.00	8102.00
	37.00	10.00	0.00	-14.00	8128.00	8103.00
	14.00	-1.00	-3.00	-8.00	8128.00	8103.00
	-4.00	-9.00	-4.00	7.00	8127.00	8103.00
	-11.00	-8.00	-9.00	13.00	8127.00	8102.00
	-20.00	-8.00	-15.00	14.00	8127.00	8102.00
	4.00	-4.00	-18.00	16.00	8127.00	8103.00
	11.00	-4.00	-17.00	13.00	8127.00	8103.00
	3.00	6.00	-14.00	-9.00	8129.00	8103.00
	4.00	4.00	-13.00	-10.00	8128.00	8102.00
	26.00	-8.00	-10.00	-10.00	8127.00	8102.00
	40.00	-6.00	-5.00	-14.00	8128.00	8102.00
	24.00	-6.00	0.00	-7.00	8128.00	8103.00
	13.00	-15.00	4.00	5.00	8128.00	8103.00
	-7.00	-19.00	6.00	7.00	8127.00	8102.00
	-25.00	-13.00	13.00	5.00	8128.00	8104.00
	-43.00	-18.00	12.00	19.00	8128.00	8103.00
	-51.00	-16.00	9.00	12.00	8127.00	8103.00
	-35.00	-9.00	2.00	8.00	8128.00	8103.00
	-24.00	-20.00	-6.00	17.00	8128.00	8103.00
	-21.00	-13.00	-18.00	3.00	8127.00	8103.00
	-18.00	1.00	-24.00	-10.00	8129.00	8103.00
	-5.00	5.00	-13.00	-8.00	8128.00	8103.00
	5.00	1.00	-8.00	-5.00	8129.00	8103.00
	9.00	5.00	-2.00	-7.00	8129.00	8103.00
	11.00	1.00	19.00	-7.00	8129.00	8103.00
	11.00	-4.00	27.00	-6.00	8128.00	8102.00
	15.00	-7.00	2.00	-7.00	8128.00	8103.00
	24.00	-6.00	2.00	-8.00	8128.00	8103.00
	14.00	-10.00	3.00	-11.00	8128.00	8103.00
	14.00	-8.00	1.00	-6.00	8128.00	8103.00
	32.00	-22.00	4.00	1.00	8129.00	8103.00
	34.00	-32.00	1.00	6.00	8127.00	8103.00
	28.00	-25.00	-6.00	6.00	8128.00	8103.00
	11.00	-24.00	13.00	10.00	8128.00	8104.00
	-3.00	-14.00	19.00	16.00	8128.00	8103.00
	-9.00	5.00	20.00	5.00	8127.00	8102.00
	-13.00	18.00	22.00	5.00	8127.00	8103.00
	-25.00	23.00	12.00	12.00	8128.00	8103.00
	-31.00	42.00	5.00	-1.00	8128.00	8103.00
	-23.00	54.00	13.00	-15.00	8129.00	8103.00
	-4.00	68.00	4.00	-29.00	8128.00	8103.00
	51.00	65.00	-5.00	-28.00	8128.00	8103.00
	83.00	34.00	-8.00	-20.00	8128.00	8103.00
	64.00	11.00	-5.00	-9.00	8128.00	8103.00
	34.00	-4.00	-2.00	0.00	8129.00	8103.00
	35.00	-22.00	-7.00	7.00	8128.00	8103.00
	65.00	-24.00	-14.00	10.00	8127.00	8103.00
	129.00	-25.00	-11.00	14.00	8127.00	8102.00
	70.00	-31.00	-7.00	20.00	8128.00	8103.00
	-18.00	-31.00	-6.00	26.00	8127.00	8102.00
	-93.00	-24.00	-5.00	30.00	8128.00	8103.00
	-140.00	-23.00	-11.00	29.00	8127.00	8102.00
	-160.00	-22.00	-7.00	23.00	8128.00	8103.00
	-144.00	-19.00	-5.00	14.00	8128.00	8103.00
	-122.00	-27.00	3.00	9.00	8127.00	8103.00
	-125.00	-18.00	8.00	-9.00	8128.00	8103.00
	-110.00	-14.00	11.00	-21.00	8128.00	8103.00
	-93.00	3.00	9.00	-41.00	8128.00	8104.00
	-13.00	18.00	-2.00	-42.00	8127.00	8102.00
	53.00	25.00	-7.00	-29.00	8128.00	8102.00
	71.00	22.00	-8.00	-18.00	8128.00	8103.00
	65.00	16.00	-14.00	-16.00	8128.00	8103.00
	40.00	1.00	-12.00	-8.00	8128.00	8103.00
	10.00	-18.00	-8.00	-6.00	8128.00	8103.00
	-5.00	-21.00	-9.00	-5.00	8128.00	8103.00
	22.00	-24.00	-10.00	-8.00	8128.00	8103.00
	50.00	-13.00	-11.00	-15.00	8128.00	8103.00
	61.00	4.00	-11.00	-16.00	8128.00	8103.00
	29.00	16.00	-8.00	-19.00	8128.00	8103.00
	-12.00	25.00	-4.00	-16.00	8128.00	8103.00
	-24.00	28.00	0.00	-7.00	8128.00	8103.00
	-2.00	37.00	-3.00	-5.00	8128.00	8103.00
	32.00	29.00	-5.00	11.00	8127.00	8103.00
	65.00	2.00	5.00	36.00	8127.00	8102.00
	42.00	-20.00	12.00	43.00	8127.00	8103.00
	15.00	-19.00	15.00	13.00	8128.00	8103.00
	-7.00	-18.00	14.00	-8.00	8129.00	8103.00
	-18.00	-26.00	16.00	-2.00	8128.00	8102.00
	-10.00	-13.00	13.00	-6.00	8128.00	8103.00
	9.00	-7.00	9.00	-9.00	8128.00	8103.00
	4.00	-3.00	7.00	-11.00	8129.00	8103.00
	11.00	-5.00	-4.00	-11.00	8128.00	8102.00
	27.00	-8.00	-9.00	-8.00	8128.00	8103.00
	50.00	-8.00	-14.00	-1.00	8128.00	8102.00
	81.00	-9.00	-20.00	4.00	8126.00	8102.00
	61.00	-18.00	-26.00	5.00	8127.00	8103.00
	48.00	-13.00	-33.00	5.00	8127.00	8102.00
	-17.00	-1.00	-31.00	12.00	8128.00	8103.00
	-45.00	6.00	-28.00	19.00	8127.00	8102.00
	-81.00	27.00	-26.00	16.00	8127.00	8103.00
	-93.00	55.00	-13.00	5.00	8128.00	8103.00
	-92.00	39.00	9.00	8.00	8128.00	8103.00
	-83.00	5.00	24.00	7.00	8126.00	8102.00
	-32.00	1.00	22.00	5.00	8128.00	8103.00
	49.00	-12.00	26.00	18.00	8128.00	8103.00
	37.00	-11.00	25.00	-18.00	8128.00	8103.00
	8.00	0.00	26.00	-49.00	8129.00	8103.00
	7.00	3.00	19.00	-48.00	8128.00	8103.00
	19.00	-4.00	16.00	-25.00	8128.00	8103.00
	30.00	-2.00	14.00	-7.00	8128.00	8103.00
	14.00	-1.00	7.00	20.00	8127.00	8102.00
	3.00	-6.00	3.00	48.00	8127.00	8103.00
	-10.00	8.00	-11.00	35.00	8128.00	8103.00
	-14.00	12.00	-23.00	7.00	8127.00	8103.00
	14.00	17.00	-23.00	-18.00	8128.00	8103.00
	63.00	15.00	-24.00	-25.00	8128.00	8102.00
	100.00	3.00	-17.00	-22.00	8129.00	8103.00
	129.00	1.00	-21.00	-17.00	8128.00	8103.00
	144.00	-21.00	-26.00	1.00	8128.00	8103.00
	75.00	-41.00	-24.00	10.00	8127.00	8103.00
	-13.00	-77.00	-14.00	22.00	8127.00	8103.00
	-84.00	-88.00	5.00	36.00	8127.00	8103.00
	-118.00	-78.00	13.00	37.00	8126.00	8102.00
	-138.00	-65.00	31.00	34.00	8127.00	8102.00
	-118.00	-38.00	41.00	17.00	8127.00	8103.00
	-109.00	-7.00	54.00	-2.00	8127.00	8102.00
	-82.00	14.00	44.00	-27.00	8128.00	8103.00
	-2.00	30.00	29.00	-38.00	8128.00	8103.00
	25.00	66.00	13.00	-57.00	8128.00	8103.00
	-6.00	95.00	-3.00	-66.00	8127.00	8103.00
	-23.00	80.00	-16.00	-52.00	8128.00	8103.00
	3.00	61.00	-22.00	-31.00	8128.00	8103.00
	-16.00	63.00	-24.00	-20.00	8128.00	8103.00
	-46.00	64.00	-27.00	-12.00	8129.00	8104.00
	-86.00	37.00	-30.00	-12.00	8128.00	8103.00
	-80.00	10.00	-27.00	-18.00	8128.00	8103.00
	-35.00	3.00	-16.00	-23.00	8128.00	8103.00
	19.00	-18.00	-7.00	-16.00	8129.00	8103.00
	34.00	-83.00	7.00	29.00	8129.00	8104.00
	-11.00	-114.00	20.00	50.00	8127.00	8103.00
	-31.00	-106.00	15.00	43.00	8127.00	8102.00
	4.00	-81.00	9.00	37.00	8127.00	8102.00
	-6.00	-50.00	7.00	26.00	8127.00	8102.00
	-74.00	-33.00	12.00	30.00	8128.00	8103.00
	-84.00	-20.00	9.00	34.00	8128.00	8102.00
	-79.00	-7.00	0.00	25.00	8128.00	8104.00
	-51.00	8.00	-12.00	4.00	8128.00	8104.00
	17.00	36.00	-14.00	-14.00	8128.00	8103.00
	98.00	60.00	2.00	-8.00	8128.00	8102.00
	95.00	65.00	9.00	-11.00	8128.00	8103.00
	81.00	50.00	11.00	-14.00	8128.00	8103.00
	73.00	28.00	14.00	-25.00	8128.00	8103.00
	82.00	13.00	8.00	-41.00	8128.00	8103.00
	110.00	10.00	-15.00	-48.00	8128.00	8103.00
	87.00	5.00	-35.00	-46.00	8128.00	8103.00
	82.00	-7.00	-35.00	-26.00	8128.00	8103.00
	75.00	-32.00	-25.00	4.00	8127.00	8102.00
	66.00	-27.00	-24.00	-13.00	8128.00	8102.00
	52.00	-37.00	-30.00	-13.00	8128.00	8102.00
	45.00	-35.00	-31.00	-12.00	8128.00	8103.00
	72.00	-43.00	-54.00	-11.00	8129.00	8104.00
	94.00	-41.00	-70.00	-4.00	8128.00	8103.00
	74.00	-36.00	-29.00	20.00	8127.00	8102.00
	69.00	-8.00	22.00	7.00	8128.00	8103.00
	36.00	7.00	113.00	4.00	8128.00	8103.00
	-22.00	28.00	61.00	12.00	8128.00	8103.00
	-70.00	60.00	53.00	11.00	8128.00	8103.00
	-86.00	73.00	49.00	19.00	8126.00	8102.00
	-101.00	54.00	70.00	48.00	8128.00	8103.00
	-105.00	36.00	66.00	63.00	8127.00	8102.00
	-104.00	17.00	56.00	71.00	8128.00	8104.00
	-107.00	-5.00	42.00	59.00	8128.00	8103.00
	-43.00	-17.00	29.00	37.00	8128.00	8103.00
	-33.00	-13.00	18.00	11.00	8128.00	8103.00
	-36.00	-5.00	-9.00	-2.00	8128.00	8102.00
	-26.00	-5.00	-22.00	-3.00	8129.00	8103.00
	-18.00	-11.00	-52.00	-2.00	8129.00	8103.00
	-3.00	-9.00	-79.00	-29.00	8129.00	8103.00
	34.00	2.00	-89.00	-60.00	8128.00	8103.00
	152.00	5.00	-105.00	-61.00	8127.00	8102.00
	270.00	5.00	-112.00	-42.00	8129.00	8104.00
	194.00	19.00	-114.00	-33.00	8129.00	8104.00
	2.00	11.00	-100.00	-16.00	8128.00	8103.00
	-133.00	-4.00	-47.00	-15.00	8129.00	8103.00
	-214.00	0.00	1.00	-12.00	8129.00	8104.00
	-243.00	-5.00	-2.00	7.00	8128.00	8103.00
	-208.00	-16.00	92.00	38.00	8128.00	8104.00
	-172.00	-23.00	132.00	55.00	8127.00	8103.00
	-133.00	-17.00	138.00	43.00	8128.00	8103.00
	-123.00	-45.00	87.00	11.00	8127.00	8103.00
	-98.00	-43.00	79.00	-15.00	8129.00	8104.00
	-43.00	-54.00	68.00	-7.00	8128.00	8102.00
	14.00	-31.00	58.00	-21.00	8128.00	8103.00
	95.00	2.00	40.00	-38.00	8128.00	8102.00
	144.00	16.00	21.00	-50.00	8128.00	8102.00
	147.00	11.00	3.00	-39.00	8128.00	8103.00
	121.00	10.00	-10.00	-24.00	8128.00	8103.00
	67.00	9.00	-21.00	-20.00	8128.00	8103.00
	22.00	6.00	-31.00	-12.00	8128.00	8103.00
	29.00	8.00	-42.00	-17.00	8128.00	8103.00
	42.00	-3.00	-50.00	-12.00	8128.00	8103.00
	49.00	-16.00	-52.00	-11.00	8128.00	8103.00
	62.00	-15.00	-48.00	-20.00	8128.00	8103.00
	51.00	-31.00	-45.00	-15.00	8128.00	8103.00
	48.00	-24.00	-39.00	-12.00	8128.00	8103.00
	29.00	-26.00	-27.00	-1.00	8128.00	8103.00
	-14.00	-36.00	-19.00	6.00	8127.00	8103.00
	-43.00	-33.00	-4.00	17.00	8128.00	8103.00
	-61.00	-24.00	10.00	27.00	8128.00	8103.00
	-44.00	-31.00	22.00	49.00	8128.00	8103.00
	-9.00	-11.00	32.00	44.00	8128.00	8103.00
	-11.00	20.00	35.00	31.00	8128.00	8103.00
	-27.00	47.00	30.00	-2.00	8128.00	8103.00
	-16.00	47.00	13.00	-14.00	8128.00	8103.00
	36.00	38.00	-7.00	-15.00	8128.00	8103.00
	39.00	54.00	-17.00	-25.00	8129.00	8103.00
	59.00	56.00	-39.00	-34.00	8128.00	8103.00
	52.00	43.00	-58.00	-35.00	8129.00	8104.00
	1.00	42.00	-66.00	-39.00	8129.00	8104.00
	-39.00	34.00	-69.00	-33.00	8129.00	8103.00
	4.00	38.00	-73.00	-22.00	8129.00	8104.00
	30.00	33.00	-68.00	-4.00	8130.00	8104.00
	58.00	13.00	-62.00	10.00	8128.00	8103.00
	41.00	13.00	-45.00	19.00	8128.00	8103.00
	-27.00	17.00	-34.00	23.00	8128.00	8103.00
	-75.00	9.00	-3.00	22.00	8128.00	8103.00
	-93.00	-12.00	47.00	46.00	8128.00	8103.00
	-86.00	-49.00	58.00	69.00	8128.00	8104.00
	-23.00	-84.00	83.00	80.00	8128.00	8104.00
	12.00	-90.00	87.00	60.00	8128.00	8104.00
	-15.00	-64.00	89.00	16.00	8128.00	8103.00
	-28.00	-29.00	94.00	-16.00	8129.00	8103.00
	-43.00	-3.00	84.00	-33.00	8129.00	8104.00
	-63.00	12.00	65.00	-46.00	8128.00	8103.00
	-39.00	4.00	47.00	-23.00	8129.00	8103.00
	-3.00	3.00	25.00	-12.00	8129.00	8104.00
	8.00	9.00	13.00	-14.00	8129.00	8104.00
	24.00	17.00	4.00	-19.00	8128.00	8102.00
	34.00	22.00	-10.00	-27.00	8128.00	8103.00
	86.00	21.00	-33.00	-33.00	8129.00	8103.00
	128.00	4.00	-44.00	-20.00	8129.00	8104.00
	119.00	-13.00	-44.00	-4.00	8129.00	8103.00
	41.00	0.00	-46.00	-3.00	8129.00	8104.00
	-4.00	19.00	-47.00	-9.00	8129.00	8104.00
	-39.00	32.00	-45.00	-10.00	8128.00	8103.00
	-10.00	53.00	-41.00	-12.00	8129.00	8103.00
	24.00	56.00	-33.00	-11.00	8129.00	8103.00
	18.00	32.00	-24.00	10.00	8127.00	8103.00
	-26.00	21.00	-9.00	17.00	8128.00	8104.00
	-68.00	25.00	7.00	2.00	8127.00	8103.00
	-95.00	9.00	25.00	12.00	8128.00	8104.00
	-123.00	-13.00	20.00	26.00	8128.00	8104.00
	-119.00	-33.00	6.00	17.00	8128.00	8103.00
	-101.00	-42.00	4.00	24.00	8128.00	8103.00
	-66.00	-46.00	21.00	28.00	8127.00	8103.00
	-19.00	-48.00	22.00	22.00	8128.00	8104.00
	-56.00	-56.00	27.00	7.00	8129.00	8104.00
	-16.00	-47.00	24.00	-15.00	8129.00	8104.00
	33.00	-55.00	15.00	-1.00	8129.00	8104.00
	70.00	-66.00	2.00	19.00	8128.00	8103.00
	134.00	-80.00	-4.00	46.00	8128.00	8104.00
	125.00	-63.00	-5.00	35.00	8128.00	8103.00
	90.00	-39.00	-7.00	15.00	8128.00	8104.00
	55.00	-23.00	-11.00	-2.00	8129.00	8104.00
	15.00	-7.00	-17.00	-18.00	8130.00	8104.00
	30.00	10.00	-13.00	-22.00	8128.00	8103.00
	51.00	26.00	-19.00	-34.00	8129.00	8104.00
	57.00	41.00	-30.00	-45.00	8128.00	8103.00
	69.00	50.00	-28.00	-46.00	8129.00	8104.00
	78.00	62.00	-30.00	-46.00	8129.00	8103.00
	57.00	50.00	-34.00	-39.00	8129.00	8104.00
	14.00	5.00	-37.00	-14.00	8129.00	8103.00
	-42.00	-23.00	-33.00	-1.00	8128.00	8103.00
	-55.00	-77.00	-36.00	22.00	8128.00	8103.00
	-60.00	-105.00	-37.00	35.00	8128.00	8104.00
	-70.00	-115.00	-25.00	46.00	8129.00	8104.00
	-77.00	-112.00	15.00	58.00	8128.00	8104.00
	-79.00	-57.00	26.00	45.00	8128.00	8104.00
	-37.00	8.00	26.00	32.00	8128.00	8104.00
	0.00	67.00	44.00	28.00	8128.00	8103.00
	19.00	100.00	50.00	17.00	8128.00	8104.00
	50.00	136.00	31.00	-5.00	8128.00	8103.00
	4.00	165.00	20.00	-27.00	8129.00	8103.00
	-30.00	158.00	4.00	-31.00	8129.00	8104.00
	-57.00	106.00	-5.00	-21.00	8129.00	8104.00
	-62.00	58.00	4.00	-16.00	8129.00	8103.00
	-55.00	25.00	42.00	-6.00	8128.00	8103.00
	-38.00	5.00	94.00	-11.00	8128.00	8103.00
	-21.00	2.00	60.00	-8.00	8129.00	8103.00
	9.00	3.00	25.00	-8.00	8128.00	8103.00
	56.00	16.00	8.00	-4.00	8129.00	8104.00
	71.00	19.00	-8.00	-5.00	8129.00	8104.00
	56.00	9.00	-17.00	-9.00	8128.00	8103.00
	23.00	0.00	-22.00	-7.00	8128.00	8103.00
	-3.00	-11.00	-31.00	-4.00	8129.00	8104.00
	-9.00	-23.00	-37.00	-8.00	8129.00	8103.00
	27.00	-36.00	-41.00	-21.00	8128.00	8103.00
	46.00	-55.00	-50.00	-17.00	8128.00	8103.00
	29.00	-75.00	-58.00	-1.00	8129.00	8103.00
	-16.00	-104.00	-44.00	19.00	8128.00	8103.00
	-63.00	-115.00	-25.00	29.00	8128.00	8104.00
	-96.00	-119.00	5.00	40.00	8128.00	8103.00
	-92.00	-95.00	6.00	32.00	8128.00	8104.00
	-84.00	-62.00	7.00	15.00	8128.00	8104.00
	-58.00	-38.00	11.00	13.00	8128.00	8104.00
	-44.00	-17.00	23.00	4.00	8128.00	8103.00
	-23.00	22.00	33.00	-3.00	8129.00	8103.00
	-11.00	40.00	45.00	-4.00	8129.00	8104.00
	5.00	57.00	55.00	-23.00	8128.00	8103.00
	14.00	85.00	58.00	-45.00	8128.00	8103.00
	35.00	103.00	37.00	-49.00	8128.00	8103.00
	91.00	86.00	2.00	-46.00	8129.00	8104.00
	161.00	48.00	-37.00	-46.00	8128.00	8103.00
	149.00	40.00	-57.00	-70.00	8129.00	8103.00
	122.00	40.00	-72.00	-81.00	8128.00	8103.00
	99.00	36.00	-84.00	-73.00	8128.00	8103.00
	-29.00	25.00	-92.00	-48.00	8128.00	8103.00
	-87.00	22.00	-95.00	-19.00	8128.00	8103.00
	-77.00	14.00	-93.00	9.00	8127.00	8103.00
	-56.00	4.00	-75.00	35.00	8127.00	8103.00
	-28.00	-18.00	-39.00	61.00	8128.00	8103.00
	-19.00	-54.00	68.00	98.00	8128.00	8103.00
	-17.00	-75.00	183.00	106.00	8128.00	8103.00
	-25.00	-87.00	118.00	88.00	8128.00	8103.00
	-36.00	-87.00	115.00	67.00	8128.00	8103.00
	-38.00	-65.00	113.00	46.00	8128.00	8103.00
	-48.00	-45.00	92.00	19.00	8128.00	8103.00
	-44.00	-11.00	65.00	-11.00	8129.00	8104.00
	-18.00	8.00	37.00	-14.00	8128.00	8103.00
	8.00	16.00	20.00	0.00	8128.00	8102.00
	26.00	5.00	9.00	2.00	8128.00	8103.00
	35.00	-6.00	2.00	1.00	8128.00	8103.00
	25.00	-7.00	-5.00	3.00	8128.00	8103.00
	19.00	3.00	-15.00	-7.00	8129.00	8103.00
	17.00	15.00	-24.00	-22.00	8129.00	8103.00
	22.00	16.00	-28.00	-28.00	8128.00	8103.00
	24.00	10.00	-32.00	-28.00	8128.00	8103.00
	51.00	1.00	-40.00	-32.00	8128.00	8103.00
	71.00	11.00	-56.00	-40.00	8128.00	8103.00
	71.00	18.00	-69.00	-36.00	8128.00	8103.00
	31.00	18.00	-75.00	-37.00	8129.00	8104.00
	-10.00	18.00	-76.00	-26.00	8128.00	8103.00
	-24.00	11.00	-68.00	-17.00	8129.00	8104.00
	-3.00	29.00	-61.00	-12.00	8128.00	8103.00
	38.00	34.00	-52.00	4.00	8127.00	8103.00
	7.00	35.00	-41.00	6.00	8127.00	8103.00
	-17.00	25.00	-25.00	17.00	8128.00	8103.00
	-56.00	11.00	-4.00	22.00	8127.00	8103.00
	-41.00	8.00	13.00	17.00	8128.00	8103.00
	-59.00	-31.00	33.00	38.00	8128.00	8103.00
	-57.00	-55.00	65.00	41.00	8128.00	8104.00
	-59.00	-52.00	70.00	19.00	8128.00	8103.00
	-57.00	-47.00	64.00	9.00	8128.00	8103.00
	-61.00	-45.00	55.00	5.00	8127.00	8103.00
	-51.00	-30.00	43.00	-16.00	8128.00	8103.00
	-33.00	-26.00	14.00	-32.00	8128.00	8103.00
	-20.00	-25.00	-4.00	-40.00	8128.00	8103.00
	-12.00	-5.00	-27.00	-52.00	8128.00	8103.00
	28.00	5.00	-47.00	-56.00	8129.00	8104.00
	20.00	-1.00	-60.00	-47.00	8129.00	8103.00
	30.00	1.00	-63.00	-43.00	8128.00	8103.00
	18.00	17.00	-37.00	-36.00	8129.00	8104.00
	-26.00	33.00	12.00	-38.00	8128.00	8103.00
	-106.00	39.00	-10.00	-29.00	8129.00	8103.00
	-92.00	16.00	-21.00	-18.00	8128.00	8103.00
	-38.00	3.00	-18.00	1.00	8128.00	8104.00
	4.00	-16.00	22.00	24.00	8127.00	8103.00
	35.00	-53.00	62.00	60.00	8128.00	8103.00
	34.00	-83.00	57.00	101.00	8129.00	8104.00
	-4.00	-87.00	39.00	104.00	8128.00	8103.00
	11.00	-51.00	28.00	77.00	8129.00	8104.00
	36.00	-11.00	44.00	66.00	8128.00	8103.00
	82.00	6.00	69.00	51.00	8128.00	8104.00
	110.00	35.00	27.00	19.00	8128.00	8103.00
	119.00	54.00	13.00	1.00	8127.00	8103.00
	100.00	61.00	19.00	-21.00	8129.00	8104.00
	118.00	74.00	15.00	-46.00	8128.00	8103.00
	102.00	51.00	7.00	-40.00	8129.00	8104.00
	76.00	29.00	-11.00	-32.00	8128.00	8103.00
	56.00	33.00	-57.00	-42.00	8128.00	8103.00
	90.00	59.00	-130.00	-85.00	8128.00	8104.00
	116.00	57.00	-174.00	-138.00	8128.00	8103.00
	107.00	58.00	-189.00	-126.00	8129.00	8104.00
	7.00	59.00	-185.00	-90.00	8128.00	8103.00
	-42.00	43.00	-166.00	-36.00	8128.00	8103.00
	-81.00	-7.00	-117.00	31.00	8128.00	8103.00
	-90.00	-47.00	-27.00	84.00	8128.00	8103.00
	-98.00	-76.00	89.00	117.00	8129.00	8104.00
	-106.00	-96.00	107.00	132.00	8128.00	8103.00
	-80.00	-92.00	241.00	133.00	8128.00	8103.00
	-38.00	-66.00	207.00	124.00	8128.00	8103.00
	-2.00	-50.00	150.00	127.00	8128.00	8103.00
	-53.00	-70.00	176.00	111.00	8128.00	8103.00
	-133.00	-56.00	137.00	63.00	8128.00	8104.00
	-119.00	-33.00	93.00	11.00	8128.00	8103.00
	-97.00	-13.00	59.00	-28.00	8129.00	8104.00
	-81.00	-6.00	41.00	-49.00	8128.00	8102.00
	-54.00	-17.00	29.00	-50.00	8129.00	8104.00
	16.00	-14.00	22.00	-40.00	8128.00	8103.00
	21.00	-14.00	28.00	-9.00	8128.00	8103.00
	5.00	-13.00	14.00	4.00	8127.00	8102.00
	-17.00	5.00	-4.00	-10.00	8129.00	8103.00
	-14.00	24.00	0.00	-25.00	8128.00	8102.00
	-2.00	73.00	-7.00	-52.00	8129.00	8103.00
	-14.00	89.00	-12.00	-66.00	8128.00	8103.00
	-14.00	104.00	-24.00	-70.00	8128.00	8103.00
	-9.00	112.00	-59.00	-71.00	8128.00	8103.00
	10.00	84.00	-89.00	-69.00	8128.00	8103.00
	45.00	46.00	-110.00	-62.00	8129.00	8104.00
	57.00	33.00	-110.00	-70.00	8128.00	8103.00
	113.00	24.00	-97.00	-61.00	8128.00	8103.00
	98.00	2.00	-54.00	-51.00	8128.00	8103.00
	20.00	-14.00	-77.00	-25.00	8129.00	8103.00
	-41.00	-9.00	-28.00	-22.00	8127.00	8102.00
	-78.00	-11.00	-8.00	-31.00	8128.00	8103.00
	-67.00	-34.00	-26.00	-17.00	8128.00	8103.00
	-88.00	-54.00	-8.00	20.00	8128.00	8103.00
	-83.00	-67.00	-2.00	66.00	8128.00	8103.00
	-102.00	-82.00	20.00	97.00	8127.00	8102.00
	-112.00	-69.00	65.00	110.00	8128.00	8103.00
	-62.00	-60.00	104.00	92.00	8129.00	8104.00
	0.00	-46.00	78.00	72.00	8128.00	8103.00
	35.00	-40.00	72.00	45.00	8127.00	8103.00
	78.00	-21.00	71.00	31.00	8128.00	8103.00
	78.00	-9.00	48.00	25.00	8127.00	8103.00
	95.00	4.00	35.00	17.00	8128.00	8103.00
	104.00	30.00	14.00	-13.00	8129.00	8103.00
	94.00	45.00	-9.00	-33.00	8129.00	8104.00
	68.00	36.00	-30.00	-52.00	8128.00	8103.00
	60.00	28.00	-41.00	-54.00	8128.00	8103.00
	85.00	26.00	-52.00	-50.00	8128.00	8103.00
	90.00	25.00	-64.00	-49.00	8128.00	8103.00
	100.00	21.00	-72.00	-43.00	8128.00	8103.00
	81.00	24.00	-68.00	-40.00	8128.00	8103.00
	51.00	18.00	-64.00	-31.00	8128.00	8102.00
	28.00	2.00	-46.00	-17.00	8129.00	8103.00
	-18.00	-23.00	-41.00	-4.00	8129.00	8103.00
	-39.00	-37.00	-42.00	3.00	8127.00	8103.00
	-36.00	-42.00	-42.00	6.00	8127.00	8103.00
	-45.00	-45.00	-41.00	9.00	8127.00	8102.00
	-25.00	-46.00	-33.00	22.00	8127.00	8102.00
	-37.00	-50.00	-21.00	32.00	8126.00	8102.00
	-39.00	-47.00	7.00	45.00	8128.00	8103.00
	-51.00	-43.00	23.00	43.00	8127.00	8102.00
	-60.00	-25.00	34.00	24.00	8127.00	8103.00
	-72.00	-7.00	34.00	3.00	8127.00	8103.00
	-47.00	16.00	19.00	-11.00	8128.00	8103.00
	-30.00	44.00	-9.00	-16.00	8128.00	8103.00
	-11.00	60.00	-29.00	-30.00	8128.00	8103.00
	30.00	81.00	-73.00	-58.00	8128.00	8103.00
	59.00	72.00	-93.00	-97.00	8128.00	8103.00
	41.00	64.00	-85.00	-109.00	8128.00	8103.00
	20.00	88.00	-148.00	-122.00	8129.00	8103.00
	-86.00	81.00	-203.00	-112.00	8127.00	8102.00
	-89.00	26.00	-196.00	-79.00	8128.00	8103.00
	-29.00	6.00	-173.00	-42.00	8128.00	8102.00
	26.00	-7.00	-102.00	-32.00	8128.00	8103.00
	-43.00	-4.00	2.00	-22.00	8128.00	8102.00
	-37.00	-4.00	151.00	21.00	8127.00	8103.00
	-24.00	-13.00	224.00	76.00	8127.00	8103.00
	-15.00	-33.00	182.00	122.00	8127.00	8103.00
	4.00	-58.00	192.00	161.00	8128.00	8104.00
	41.00	-74.00	251.00	175.00	8128.00	8103.00
	44.00	-78.00	260.00	159.00	8128.00	8103.00
	9.00	-83.00	227.00	143.00	8127.00	8103.00
	-37.00	-74.00	236.00	116.00	8127.00	8102.00
	-24.00	-50.00	174.00	89.00	8128.00	8103.00
	-12.00	-49.00	119.00	84.00	8128.00	8103.00
	1.00	-61.00	91.00	83.00	8127.00	8103.00
	10.00	-30.00	87.00	23.00	8128.00	8103.00
	5.00	-9.00	39.00	-26.00	8128.00	8103.00
	6.00	-5.00	4.00	-43.00	8128.00	8103.00
	11.00	6.00	-17.00	-57.00	8128.00	8104.00
	10.00	15.00	-40.00	-89.00	8128.00	8103.00
	20.00	20.00	-86.00	-105.00	8128.00	8103.00
	25.00	28.00	-152.00	-100.00	8129.00	8103.00
	46.00	46.00	-184.00	-93.00	8129.00	8104.00
	72.00	59.00	-188.00	-82.00	8128.00	8103.00
	22.00	64.00	-182.00	-79.00	8128.00	8103.00
	-54.00	13.00	-173.00	-63.00	8128.00	8103.00
	-79.00	-4.00	-172.00	-45.00	8128.00	8103.00
	-67.00	6.00	-122.00	-23.00	8128.00	8103.00
	-21.00	26.00	-112.00	-16.00	8128.00	8103.00
	45.00	59.00	-96.00	-25.00	8128.00	8103.00
	71.00	78.00	-42.00	-35.00	8127.00	8103.00
	91.00	70.00	0.00	-14.00	8128.00	8103.00
	95.00	32.00	65.00	13.00	8126.00	8102.00
	94.00	-14.00	79.00	44.00	8127.00	8103.00
	46.00	-75.00	71.00	65.00	8128.00	8103.00
	-29.00	-100.00	94.00	57.00	8128.00	8103.00
	-46.00	-96.00	107.00	43.00	8128.00	8103.00
	-59.00	-76.00	134.00	38.00	8128.00	8103.00
	-72.00	-78.00	137.00	55.00	8128.00	8103.00
	-68.00	-75.00	123.00	63.00	8128.00	8102.00
	-64.00	-62.00	101.00	47.00	8127.00	8102.00
	-57.00	-48.00	34.00	38.00	8128.00	8103.00
	-13.00	-24.00	-27.00	4.00	8128.00	8103.00
	68.00	31.00	-61.00	-65.00	8128.00	8103.00
	74.00	65.00	-84.00	-108.00	8128.00	8103.00
	68.00	21.00	-105.00	-117.00	8128.00	8103.00
	18.00	-23.00	-136.00	-133.00	8128.00	8103.00
	-6.00	-24.00	-155.00	-123.00	8128.00	8103.00
	-43.00	5.00	-163.00	-93.00	8128.00	8103.00
	-6.00	22.00	-141.00	-47.00	8128.00	8103.00
	-4.00	50.00	-88.00	8.00	8128.00	8103.00
	-97.00	91.00	45.00	46.00	8127.00	8103.00
	-93.00	78.00	186.00	93.00	8127.00	8103.00
	-87.00	68.00	168.00	135.00	8128.00	8104.00
	-41.00	16.00	114.00	171.00	8128.00	8103.00
	0.00	-27.00	119.00	166.00	8128.00	8103.00
	-16.00	-32.00	103.00	110.00	8128.00	8103.00
	-19.00	-30.00	85.00	47.00	8128.00	8103.00
	0.00	-22.00	73.00	-7.00	8129.00	8103.00
	-2.00	-18.00	63.00	-22.00	8129.00	8103.00
	7.00	2.00	45.00	-25.00	8129.00	8104.00
	1.00	29.00	22.00	-42.00	8128.00	8103.00
	-25.00	39.00	5.00	-43.00	8128.00	8102.00
	-26.00	17.00	-13.00	-21.00	8128.00	8103.00
	-28.00	8.00	-15.00	-23.00	8128.00	8102.00
	-17.00	15.00	-26.00	-45.00	8128.00	8103.00
	3.00	18.00	-36.00	-44.00	8128.00	8102.00
	3.00	28.00	-61.00	-60.00	8128.00	8103.00
	15.00	20.00	-117.00	-68.00	8128.00	8104.00
	25.00	19.00	-163.00	-73.00	8128.00	8103.00
	41.00	37.00	-201.00	-80.00	8129.00	8104.00
	49.00	59.00	-227.00	-104.00	8128.00	8103.00
	41.00	77.00	-221.00	-108.00	8128.00	8103.00
	-63.00	81.00	-238.00	-100.00	8128.00	8103.00
	-193.00	69.00	-174.00	-61.00	8129.00	8104.00
	-211.00	47.00	-92.00	-21.00	8129.00	8104.00
	-82.00	0.00	-95.00	29.00	8127.00	8103.00
	36.00	-39.00	-25.00	76.00	8127.00	8103.00
	101.00	-60.00	142.00	111.00	8128.00	8103.00
	145.00	-72.00	222.00	124.00	8128.00	8103.00
	165.00	-66.00	265.00	118.00	8128.00	8103.00
	149.00	-67.00	220.00	114.00	8128.00	8103.00
	129.00	-83.00	163.00	102.00	8128.00	8103.00
	77.00	-95.00	152.00	84.00	8128.00	8104.00
	15.00	-86.00	111.00	14.00	8128.00	8103.00
	49.00	-45.00	78.00	-95.00	8129.00	8104.00
	82.00	-17.00	49.00	-158.00	8128.00	8103.00
	137.00	34.00	-39.00	-167.00	8128.00	8103.00
	174.00	72.00	-110.00	-133.00	8128.00	8103.00
	161.00	90.00	-124.00	-73.00	8128.00	8104.00
	78.00	79.00	-92.00	-21.00	8128.00	8103.00
	54.00	68.00	-75.00	25.00	8127.00	8103.00
	66.00	59.00	-18.00	35.00	8128.00	8103.00
	-61.00	41.00	56.00	-6.00	8128.00	8103.00
	-135.00	15.00	49.00	-25.00	8128.00	8103.00
	-115.00	-20.00	85.00	-38.00	8128.00	8103.00
	-72.00	-68.00	47.00	2.00	8128.00	8103.00
	-18.00	-104.00	5.00	77.00	8128.00	8103.00
	-46.00	-120.00	25.00	145.00	8128.00	8103.00
	-70.00	-131.00	89.00	214.00	8128.00	8103.00
	-96.00	-129.00	116.00	253.00	8128.00	8102.00
	-120.00	-113.00	117.00	263.00	8129.00	8103.00
	-139.00	-69.00	157.00	185.00	8128.00	8103.00
	-152.00	-51.00	136.00	125.00	8128.00	8103.00
	-146.00	-81.00	125.00	93.00	8127.00	8102.00
	-113.00	-91.00	132.00	80.00	8128.00	8103.00
	-85.00	-66.00	88.00	25.00	8127.00	8103.00
	-64.00	-29.00	79.00	-34.00	8128.00	8103.00
	-37.00	22.00	8.00	-94.00	8128.00	8103.00
	18.00	76.00	-34.00	-126.00	8128.00	8103.00
	-27.00	109.00	-69.00	-131.00	8128.00	8103.00
	-42.00	117.00	-124.00	-119.00	8128.00	8102.00
	-42.00	105.00	-168.00	-97.00	8129.00	8104.00
	-31.00	72.00	-186.00	-87.00	8128.00	8103.00
	-5.00	58.00	-192.00	-108.00	8128.00	8103.00
	18.00	35.00	-164.00	-114.00	8129.00	8104.00
	44.00	-1.00	-97.00	-95.00	8129.00	8103.00
	56.00	-45.00	-95.00	-74.00	8129.00	8104.00
	70.00	-83.00	-155.00	-66.00	8129.00	8104.00
	103.00	-94.00	-191.00	-76.00	8128.00	8103.00
	151.00	-65.00	-197.00	-136.00	8128.00	8103.00
	184.00	-70.00	-221.00	-139.00	8129.00	8104.00
	105.00	-85.00	-248.00	-106.00	8127.00	8103.00
	46.00	-39.00	-224.00	-54.00	8128.00	8103.00
	-3.00	28.00	-134.00	1.00	8127.00	8103.00
	-14.00	41.00	95.00	49.00	8128.00	8103.00
	5.00	61.00	330.00	82.00	8129.00	8104.00
	19.00	75.00	429.00	114.00	8128.00	8103.00
	10.00	57.00	352.00	149.00	8128.00	8103.00
	3.00	31.00	245.00	179.00	8129.00	8104.00
	-10.00	16.00	160.00	187.00	8128.00	8104.00
	-16.00	0.00	107.00	195.00	8128.00	8103.00
	-63.00	36.00	62.00	112.00	8128.00	8103.00
	-68.00	65.00	32.00	24.00	8128.00	8103.00
	12.00	72.00	10.00	-48.00	8128.00	8103.00
	22.00	85.00	-9.00	-95.00	8129.00	8104.00
	-78.00	102.00	-36.00	-98.00	8128.00	8103.00
	-49.00	107.00	-60.00	-83.00	8129.00	8103.00
	-29.00	88.00	-75.00	-71.00	8128.00	8103.00
	-5.00	87.00	-48.00	-86.00	8128.00	8103.00
	11.00	76.00	-147.00	-117.00	8128.00	8103.00
	72.00	43.00	-166.00	-127.00	8128.00	8103.00
	99.00	-8.00	-86.00	-88.00	8128.00	8103.00
	85.00	-25.00	-96.00	-46.00	8128.00	8103.00
	-3.00	-20.00	-163.00	-49.00	8128.00	8103.00
	-67.00	-8.00	-155.00	-74.00	8128.00	8103.00
	-54.00	-19.00	-120.00	-124.00	8128.00	8103.00
	-6.00	-33.00	-53.00	-125.00	8128.00	8103.00
	-51.00	-46.00	44.00	-98.00	8129.00	8104.00
	-38.00	-53.00	103.00	-31.00	8128.00	8103.00
	-17.00	-61.00	186.00	64.00	8128.00	8103.00
	-3.00	-66.00	205.00	145.00	8129.00	8104.00
	-10.00	-33.00	262.00	208.00	8128.00	8103.00
	-11.00	11.00	221.00	201.00	8128.00	8103.00
	105.00	69.00	202.00	148.00	8128.00	8103.00
	212.00	48.00	110.00	131.00	8128.00	8103.00
	151.00	-15.00	-7.00	110.00	8128.00	8103.00
	21.00	-89.00	-50.00	67.00	8128.00	8103.00
	-47.00	-128.00	-90.00	17.00	8128.00	8104.00
	-65.00	-125.00	-135.00	-10.00	8129.00	8104.00
	-126.00	-115.00	-166.00	14.00	8128.00	8104.00
	-130.00	-105.00	-171.00	32.00	8128.00	8103.00
	-109.00	-95.00	-138.00	61.00	8128.00	8103.00
	-105.00	-88.00	-34.00	93.00	8127.00	8103.00
	-93.00	-62.00	46.00	96.00	8128.00	8103.00
	-83.00	-60.00	175.00	102.00	8128.00	8103.00
	-88.00	-55.00	219.00	68.00	8129.00	8104.00
	-82.00	-1.00	201.00	10.00	8128.00	8104.00
	-40.00	45.00	188.00	-35.00	8128.00	8103.00
	47.00	37.00	136.00	-48.00	8129.00	8104.00
	70.00	65.00	72.00	-65.00	8128.00	8103.00
	74.00	78.00	13.00	-89.00	8129.00	8104.00
	52.00	70.00	-37.00	-97.00	8128.00	8103.00
	58.00	80.00	-92.00	-117.00	8128.00	8104.00
	73.00	101.00	-156.00	-139.00	8129.00	8104.00
	76.00	113.00	-198.00	-169.00	8128.00	8103.00
	5.00	109.00	-223.00	-206.00	8127.00	8103.00
	-35.00	95.00	-225.00	-204.00	8129.00	8104.00
	-22.00	45.00	-197.00	-200.00	8128.00	8103.00
	34.00	18.00	-134.00	-162.00	8128.00	8103.00
	87.00	18.00	-155.00	-128.00	8128.00	8103.00
	106.00	2.00	-206.00	-97.00	8128.00	8103.00
	109.00	-21.00	-127.00	-30.00	8128.00	8103.00
	110.00	-50.00	37.00	50.00	8127.00	8103.00
	77.00	-69.00	170.00	126.00	8128.00	8103.00
	16.00	-101.00	52.00	218.00	8128.00	8103.00
	6.00	-105.00	91.00	256.00	8129.00	8103.00
	-22.00	-79.00	164.00	234.00	8128.00	8103.00
	-80.00	-52.00	201.00	190.00	8128.00	8103.00
	-81.00	-10.00	210.00	140.00	8128.00	8104.00
	-88.00	-14.00	194.00	125.00	8128.00	8103.00
	-86.00	5.00	76.00	114.00	8129.00	8105.00
	-105.00	-5.00	-2.00	79.00	8127.00	8103.00
	-127.00	-10.00	-71.00	20.00	8128.00	8103.00
	-107.00	0.00	-52.00	-9.00	8128.00	8103.00
	-73.00	-5.00	-51.00	-30.00	8129.00	8104.00
	-28.00	10.00	-70.00	-59.00	8129.00	8104.00
	9.00	20.00	-59.00	-53.00	8129.00	8104.00
	47.00	18.00	-107.00	-62.00	8129.00	8103.00
	94.00	15.00	-118.00	-76.00	8128.00	8103.00
	92.00	5.00	-80.00	-83.00	8129.00	8104.00
	14.00	-43.00	4.00	-68.00	8129.00	8104.00
	81.00	-141.00	6.00	-46.00	8129.00	8103.00
	121.00	-164.00	3.00	-22.00	8128.00	8103.00
	128.00	-113.00	-75.00	-44.00	8129.00	8103.00
	117.00	-24.00	-98.00	-93.00	8129.00	8104.00
	79.00	60.00	-65.00	-104.00	8128.00	8103.00
	18.00	127.00	23.00	-106.00	8128.00	8103.00
	-28.00	196.00	85.00	-65.00	8129.00	8103.00
	-11.00	233.00	121.00	-17.00	8128.00	8103.00
	-17.00	175.00	156.00	48.00	8128.00	8103.00
	-43.00	83.00	107.00	133.00	8129.00	8104.00
	-72.00	13.00	147.00	125.00	8128.00	8103.00
	-154.00	-10.00	148.00	71.00	8128.00	8103.00
	-145.00	-19.00	82.00	-18.00	8130.00	8105.00
	-92.00	-43.00	10.00	-67.00	8128.00	8103.00
	-34.00	-51.00	-65.00	-62.00	8128.00	8103.00
	-8.00	-31.00	-143.00	-58.00	8129.00	8104.00
	-4.00	35.00	-166.00	-51.00	8128.00	8103.00
	-11.00	51.00	-89.00	-23.00	8128.00	8103.00
	-92.00	15.00	-44.00	11.00	8127.00	8103.00
	-54.00	-36.00	3.00	39.00	8128.00	8104.00
	-7.00	-69.00	87.00	58.00	8129.00	8104.00
	94.00	-64.00	66.00	66.00	8129.00	8104.00
	109.00	-61.00	68.00	64.00	8128.00	8103.00
	25.00	-41.00	220.00	58.00	8128.00	8104.00
	-56.00	-9.00	74.00	56.00	8128.00	8103.00
	-40.00	4.00	1.00	68.00	8128.00	8103.00
	14.00	-5.00	35.00	127.00	8129.00	8103.00
	34.00	-14.00	20.00	141.00	8128.00	8102.00
	35.00	-22.00	8.00	106.00	8128.00	8103.00
	19.00	-65.00	-30.00	66.00	8128.00	8103.00
	-9.00	-43.00	-4.00	-22.00	8129.00	8103.00
	22.00	5.00	-17.00	-52.00	8129.00	8104.00
	67.00	-4.00	-35.00	-45.00	8129.00	8103.00
	113.00	-25.00	-3.00	-29.00	8129.00	8104.00
	97.00	-25.00	79.00	-32.00	8128.00	8102.00
	47.00	-6.00	66.00	-18.00	8129.00	8103.00
	-5.00	7.00	56.00	-12.00	8128.00	8103.00
	-56.00	15.00	31.00	-18.00	8129.00	8104.00
	-58.00	4.00	-14.00	-40.00	8129.00	8104.00
	-24.00	23.00	-65.00	-83.00	8128.00	8103.00
	-3.00	62.00	-155.00	-144.00	8128.00	8103.00
	28.00	68.00	-185.00	-177.00	8128.00	8103.00
	-5.00	75.00	-185.00	-188.00	8128.00	8104.00
	-41.00	47.00	-177.00	-159.00	8129.00	8104.00
	-46.00	18.00	-184.00	-119.00	8129.00	8104.00
	-62.00	-9.00	-151.00	-70.00	8128.00	8103.00
	-42.00	-32.00	-102.00	-17.00	8129.00	8104.00
	-5.00	-44.00	-47.00	37.00	8128.00	8103.00
	8.00	-49.00	50.00	76.00	8128.00	8103.00
	-18.00	-36.00	130.00	114.00	8128.00	8103.00
	-47.00	18.00	123.00	131.00	8129.00	8104.00
	-64.00	-5.00	156.00	153.00	8128.00	8103.00
	-58.00	-44.00	146.00	128.00	8129.00	8104.00
	-26.00	-78.00	84.00	58.00	8129.00	8104.00
	-63.00	-67.00	18.00	12.00	8128.00	8103.00
	-50.00	-41.00	-42.00	-24.00	8129.00	8104.00
	35.00	-27.00	-71.00	-79.00	8129.00	8104.00
	83.00	-45.00	-96.00	-96.00	8128.00	8103.00
	91.00	-29.00	-81.00	-81.00	8128.00	8103.00
	90.00	-35.00	-84.00	-53.00	8128.00	8104.00
	71.00	-7.00	-81.00	-13.00	8129.00	8103.00
	90.00	26.00	-116.00	-37.00	8128.00	8103.00
	95.00	56.00	-154.00	-58.00	8129.00	8104.00
	68.00	60.00	-217.00	-49.00	8128.00	8104.00
	-20.00	77.00	-284.00	-52.00	8128.00	8103.00
	-41.00	94.00	-288.00	-43.00	8128.00	8103.00
	35.00	76.00	-200.00	-2.00	8128.00	8103.00
	72.00	26.00	64.00	71.00	8128.00	8104.00
	61.00	23.00	322.00	99.00	8129.00	8104.00
	7.00	15.00	529.00	136.00	8129.00	8104.00
	-61.00	-18.00	487.00	184.00	8128.00	8103.00
	-103.00	-82.00	434.00	199.00	8128.00	8103.00
	-92.00	-117.00	214.00	152.00	8129.00	8104.00
	-43.00	-105.00	155.00	79.00	8128.00	8104.00
	-54.00	-105.00	206.00	56.00	8129.00	8104.00
	-61.00	-86.00	133.00	51.00	8128.00	8103.00
	-70.00	-71.00	63.00	51.00	8128.00	8104.00
	-79.00	-10.00	54.00	4.00	8128.00	8103.00
	-19.00	109.00	26.00	-63.00	8129.00	8104.00
	19.00	151.00	10.00	-99.00	8128.00	8103.00
	-22.00	165.00	25.00	-114.00	8128.00	8103.00
	-26.00	116.00	-5.00	-103.00	8128.00	8103.00
	-14.00	62.00	-46.00	-90.00	8129.00	8104.00
	0.00	47.00	-75.00	-84.00	8128.00	8103.00
	-32.00	-12.00	-129.00	-77.00	8128.00	8103.00
	-53.00	-36.00	-140.00	-98.00	8129.00	8104.00
	-62.00	-57.00	-149.00	-90.00	8129.00	8104.00
	-49.00	-64.00	-181.00	-28.00	8128.00	8103.00
	21.00	-56.00	-211.00	24.00	8128.00	8103.00
	55.00	-60.00	-212.00	65.00	8128.00	8104.00
	22.00	-35.00	-206.00	64.00	8128.00	8103.00
	82.00	8.00	-163.00	41.00	8128.00	8103.00
	78.00	52.00	-84.00	-89.00	8128.00	8104.00
	1.00	51.00	2.00	-79.00	8129.00	8104.00
	4.00	99.00	27.00	-67.00	8129.00	8103.00
	41.00	111.00	-35.00	-50.00	8128.00	8103.00
	81.00	47.00	41.00	5.00	8128.00	8103.00
	82.00	6.00	86.00	34.00	8128.00	8103.00
	52.00	-12.00	280.00	85.00	8128.00	8103.00
	37.00	-24.00	283.00	134.00	8128.00	8104.00
	3.00	-56.00	179.00	165.00	8129.00	8104.00
	-19.00	-87.00	157.00	179.00	8128.00	8104.00
	-44.00	-97.00	131.00	160.00	8129.00	8104.00
	-63.00	-119.00	68.00	135.00	8128.00	8103.00
	-77.00	-106.00	23.00	91.00	8128.00	8103.00
	-90.00	-45.00	-8.00	19.00	8128.00	8104.00
	-50.00	8.00	-15.00	-48.00	8129.00	8104.00
	-23.00	26.00	-34.00	-93.00	8129.00	8103.00
	17.00	53.00	-79.00	-81.00	8128.00	8103.00
	97.00	76.00	-140.00	-57.00	8128.00	8103.00
	149.00	120.00	-245.00	-75.00	8129.00	8104.00
	162.00	147.00	-326.00	-157.00	8129.00	8104.00
	129.00	143.00	-306.00	-197.00	8128.00	8104.00
	19.00	89.00	-284.00	-187.00	8127.00	8103.00
	-58.00	59.00	-295.00	-158.00	8128.00	8103.00
	-21.00	28.00	-292.00	-108.00	8128.00	8103.00
	-22.00	0.00	-303.00	-64.00	8128.00	8102.00
	-59.00	-18.00	-267.00	-41.00	8129.00	8103.00
	-54.00	-42.00	-85.00	-21.00	8129.00	8104.00
	-49.00	-96.00	277.00	44.00	8128.00	8103.00
	-49.00	-164.00	691.00	112.00	8129.00	8104.00
	-61.00	-199.00	764.00	145.00	8129.00	8104.00
	-80.00	-214.00	491.00	178.00	8129.00	8103.00
	-74.00	-199.00	396.00	162.00	8128.00	8103.00
	-24.00	-146.00	218.00	129.00	8129.00	8104.00
	62.00	-17.00	96.00	13.00	8128.00	8104.00
	86.00	18.00	26.00	-60.00	8129.00	8103.00
	51.00	31.00	5.00	-73.00	8129.00	8104.00
	8.00	34.00	0.00	-43.00	8128.00	8103.00
	-10.00	48.00	-4.00	-33.00	8128.00	8103.00
	-4.00	74.00	-95.00	-28.00	8129.00	8104.00
	2.00	85.00	-138.00	-35.00	8128.00	8103.00
	-3.00	55.00	-136.00	-51.00	8129.00	8104.00
	15.00	66.00	-98.00	-64.00	8128.00	8103.00
	34.00	70.00	-166.00	-85.00	8128.00	8103.00
	61.00	40.00	-241.00	-46.00	8129.00	8104.00
	58.00	-1.00	-228.00	-11.00	8129.00	8104.00
	22.00	-40.00	-170.00	46.00	8128.00	8103.00
	-46.00	-93.00	-114.00	74.00	8128.00	8103.00
	-70.00	-109.00	-67.00	92.00	8128.00	8104.00
	-93.00	-102.00	-12.00	90.00	8127.00	8103.00
	-90.00	-66.00	15.00	53.00	8128.00	8104.00
	-86.00	-47.00	64.00	80.00	8127.00	8102.00
	-84.00	-23.00	91.00	81.00	8128.00	8103.00
	-79.00	31.00	100.00	67.00	8128.00	8104.00
	-49.00	89.00	61.00	15.00	8128.00	8103.00
	-31.00	77.00	7.00	-9.00	8128.00	8103.00
	-56.00	62.00	38.00	-22.00	8128.00	8103.00
	-29.00	25.00	67.00	-37.00	8128.00	8104.00
	27.00	52.00	93.00	-35.00	8129.00	8104.00
	75.00	72.00	50.00	-35.00	8129.00	8104.00
	93.00	79.00	31.00	-28.00	8129.00	8103.00
	74.00	101.00	40.00	-5.00	8128.00	8103.00
	79.00	104.00	5.00	9.00	8128.00	8103.00
	76.00	92.00	-8.00	-10.00	8128.00	8103.00
	66.00	59.00	-10.00	-26.00	8128.00	8103.00
	55.00	32.00	-5.00	-23.00	8129.00	8103.00
	24.00	0.00	-14.00	-19.00	8128.00	8103.00
	-15.00	-33.00	-39.00	-14.00	8128.00	8103.00
	-18.00	-64.00	-59.00	-17.00	8128.00	8103.00
	-17.00	-98.00	-119.00	-53.00	8128.00	8104.00
	-13.00	-142.00	-168.00	-79.00	8129.00	8104.00
	24.00	-131.00	-189.00	-115.00	8128.00	8103.00
	29.00	-92.00	-251.00	-137.00	8128.00	8103.00
	38.00	-38.00	-249.00	-133.00	8129.00	8104.00
	45.00	8.00	-252.00	-97.00	8128.00	8103.00
	45.00	36.00	-238.00	-45.00	8128.00	8103.00
	17.00	52.00	-146.00	14.00	8127.00	8102.00
	63.00	36.00	-42.00	89.00	8128.00	8103.00
	73.00	10.00	72.00	149.00	8128.00	8103.00
	38.00	9.00	300.00	191.00	8129.00	8103.00
	-31.00	-11.00	464.00	198.00	8128.00	8103.00
	-45.00	-12.00	423.00	155.00	8129.00	8103.00
	-50.00	-6.00	425.00	92.00	8128.00	8104.00
	-76.00	0.00	367.00	29.00	8128.00	8103.00
	-65.00	15.00	224.00	-26.00	8129.00	8103.00
	-14.00	25.00	107.00	-49.00	8129.00	8103.00
	-3.00	47.00	35.00	-55.00	8128.00	8104.00
	-87.00	28.00	-23.00	-36.00	8128.00	8103.00
	-133.00	9.00	-60.00	-30.00	8129.00	8104.00
	-44.00	-18.00	-102.00	-47.00	8129.00	8104.00
	-77.00	-47.00	-130.00	-77.00	8129.00	8104.00
	-76.00	-62.00	-167.00	-131.00	8128.00	8103.00
	-113.00	-72.00	-225.00	-129.00	8129.00	8104.00
	-11.00	-82.00	-262.00	-116.00	8128.00	8103.00
	102.00	-110.00	-270.00	-97.00	8129.00	8104.00
	168.00	-65.00	-215.00	-63.00	8129.00	8103.00
	160.00	-24.00	-88.00	-29.00	8128.00	8103.00
	102.00	49.00	125.00	-24.00	8129.00	8104.00
	18.00	124.00	131.00	1.00	8128.00	8103.00
	13.00	167.00	53.00	67.00	8129.00	8104.00
	13.00	174.00	64.00	118.00	8129.00	8104.00
	-50.00	160.00	117.00	120.00	8128.00	8104.00
	-89.00	104.00	130.00	105.00	8128.00	8104.00
	-60.00	36.00	215.00	101.00	8128.00	8103.00
	-24.00	33.00	230.00	90.00	8128.00	8103.00
	7.00	57.00	125.00	63.00	8128.00	8104.00
	-19.00	2.00	83.00	49.00	8128.00	8103.00
	-74.00	-42.00	-3.00	27.00	8127.00	8103.00
	-38.00	-46.00	-73.00	-38.00	8128.00	8103.00
	-38.00	-77.00	-154.00	-110.00	8127.00	8103.00
	-30.00	-130.00	-183.00	-129.00	8128.00	8104.00
	-28.00	-173.00	-190.00	-122.00	8129.00	8104.00
	-30.00	-185.00	-207.00	-85.00	8128.00	8103.00
	-14.00	-136.00	-235.00	-33.00	8129.00	8104.00
	20.00	-98.00	-222.00	29.00	8128.00	8103.00
	82.00	-78.00	-148.00	92.00	8128.00	8103.00
	65.00	-84.00	-56.00	124.00	8128.00	8103.00
	53.00	-72.00	69.00	124.00	8127.00	8103.00
	129.00	19.00	84.00	92.00	8128.00	8103.00
	127.00	68.00	-55.00	24.00	8128.00	8103.00
	53.00	58.00	-185.00	-10.00	8129.00	8104.00
	-86.00	4.00	-283.00	5.00	8128.00	8103.00
	-204.00	1.00	-189.00	13.00	8128.00	8104.00
	-100.00	49.00	78.00	14.00	8128.00	8104.00
	1.00	81.00	236.00	23.00	8128.00	8103.00
	50.00	120.00	64.00	41.00	8128.00	8104.00
	70.00	147.00	185.00	53.00	8128.00	8103.00
	62.00	142.00	336.00	82.00	8128.00	8103.00
	57.00	120.00	447.00	104.00	8128.00	8104.00
	96.00	53.00	427.00	103.00	8128.00	8104.00
	37.00	-75.00	356.00	125.00	8128.00	8104.00
	-61.00	-178.00	298.00	116.00	8129.00	8104.00
	-78.00	-181.00	273.00	72.00	8129.00	8104.00
	-96.00	-121.00	273.00	8.00	8128.00	8104.00
	-74.00	-23.00	141.00	-54.00	8128.00	8103.00
	-34.00	22.00	9.00	-92.00	8129.00	8103.00
	22.00	52.00	-92.00	-129.00	8129.00	8104.00
	48.00	64.00	-170.00	-130.00	8128.00	8104.00
	-6.00	89.00	-237.00	-123.00	8128.00	8104.00
	-4.00	84.00	-267.00	-108.00	8129.00	8104.00
	4.00	44.00	-182.00	-99.00	8128.00	8103.00
	-10.00	22.00	-23.00	-105.00	8130.00	8105.00
	3.00	18.00	3.00	-133.00	8128.00	8104.00
	-14.00	49.00	-78.00	-133.00	8129.00	8104.00
	-16.00	47.00	-126.00	-108.00	8129.00	8104.00
	1.00	15.00	-129.00	-61.00	8128.00	8103.00
	37.00	-17.00	-90.00	-44.00	8129.00	8103.00
	35.00	-24.00	-80.00	-56.00	8129.00	8104.00
	-44.00	-33.00	-116.00	-113.00	8128.00	8103.00
	-9.00	-55.00	-61.00	-96.00	8128.00	8104.00
	6.00	-57.00	-23.00	-77.00	8128.00	8103.00
	9.00	-65.00	12.00	10.00	8127.00	8103.00
	46.00	-72.00	-25.00	108.00	8128.00	8103.00
	31.00	-141.00	-74.00	154.00	8129.00	8104.00
	26.00	-178.00	-37.00	204.00	8129.00	8104.00
	12.00	-162.00	37.00	215.00	8128.00	8103.00
	-28.00	-133.00	93.00	176.00	8128.00	8103.00
	-67.00	-80.00	51.00	104.00	8129.00	8104.00
	-52.00	-5.00	71.00	39.00	8128.00	8103.00
	-22.00	52.00	40.00	-4.00	8128.00	8103.00
	28.00	71.00	4.00	-17.00	8128.00	8104.00
	63.00	98.00	-38.00	-29.00	8129.00	8104.00
	83.00	131.00	-89.00	-64.00	8128.00	8104.00
	59.00	144.00	-131.00	-104.00	8128.00	8103.00
	51.00	143.00	-175.00	-150.00	8128.00	8104.00
	24.00	112.00	-181.00	-226.00	8129.00	8104.00
	-86.00	74.00	-179.00	-251.00	8128.00	8104.00
	-122.00	55.00	-173.00	-214.00	8128.00	8104.00
	-49.00	59.00	-165.00	-194.00	8129.00	8104.00
	95.00	57.00	-107.00	-113.00	8128.00	8103.00
	65.00	25.00	-52.00	-25.00	8129.00	8104.00
	24.00	-5.00	17.00	60.00	8128.00	8103.00
	-72.00	-2.00	52.00	103.00	8128.00	8104.00
	-120.00	-6.00	100.00	143.00	8128.00	8104.00
	-108.00	-46.00	247.00	209.00	8129.00	8104.00
	-86.00	-59.00	187.00	249.00	8128.00	8103.00
	-74.00	-116.00	187.00	319.00	8130.00	8105.00
	-66.00	-149.00	190.00	307.00	8129.00	8103.00
	-38.00	-137.00	196.00	233.00	8128.00	8103.00
	-37.00	-99.00	102.00	147.00	8129.00	8104.00
	-4.00	-62.00	56.00	92.00	8128.00	8103.00
	40.00	-33.00	61.00	60.00	8127.00	8103.00
	74.00	17.00	70.00	-8.00	8129.00	8104.00
	98.00	72.00	7.00	-63.00	8129.00	8104.00
	114.00	114.00	-54.00	-94.00	8128.00	8103.00
	83.00	103.00	-82.00	-122.00	8128.00	8104.00
	80.00	72.00	-94.00	-149.00	8128.00	8103.00
	60.00	22.00	-127.00	-174.00	8129.00	8104.00
	43.00	-1.00	-194.00	-173.00	8128.00	8103.00
	30.00	-15.00	-210.00	-175.00	8128.00	8103.00
	-30.00	-37.00	-169.00	-200.00	8128.00	8103.00
	-156.00	-87.00	-211.00	-142.00	8128.00	8103.00
	-126.00	-175.00	-226.00	-50.00	8128.00	8104.00
	-28.00	-167.00	-167.00	40.00	8127.00	8103.00
	69.00	-112.00	-136.00	110.00	8128.00	8103.00
	112.00	-9.00	-158.00	129.00	8128.00	8103.00
	157.00	113.00	-87.00	112.00	8128.00	8104.00
	78.00	158.00	126.00	85.00	8128.00	8103.00
	2.00	182.00	354.00	79.00	8128.00	8103.00
	-2.00	183.00	531.00	76.00	8128.00	8104.00
	-8.00	127.00	311.00	57.00	8128.00	8103.00
	-45.00	39.00	234.00	31.00	8128.00	8103.00
	-44.00	-22.00	232.00	-14.00	8129.00	8103.00
	-46.00	-49.00	177.00	-49.00	8129.00	8104.00
	-40.00	-67.00	135.00	-35.00	8128.00	8103.00
	-25.00	-46.00	121.00	-15.00	8128.00	8103.00
	-15.00	-22.00	134.00	7.00	8128.00	8104.00
	-37.00	-22.00	95.00	29.00	8128.00	8104.00
	-66.00	-46.00	25.00	38.00	8128.00	8104.00
	-100.00	-47.00	-100.00	26.00	8127.00	8103.00
	-64.00	9.00	-158.00	-36.00	8128.00	8103.00
	5.00	66.00	-188.00	-126.00	8128.00	8104.00
	32.00	115.00	-244.00	-184.00	8128.00	8103.00
	-76.00	101.00	-275.00	-178.00	8128.00	8104.00
	-105.00	65.00	-287.00	-161.00	8128.00	8103.00
	-22.00	51.00	-279.00	-122.00	8128.00	8103.00
	111.00	74.00	-247.00	-104.00	8129.00	8104.00
	154.00	72.00	-103.00	-78.00	8128.00	8103.00
	100.00	46.00	93.00	-22.00	8128.00	8104.00
	85.00	15.00	127.00	29.00	8128.00	8103.00
	59.00	-33.00	111.00	94.00	8128.00	8104.00
	29.00	-73.00	183.00	132.00	8128.00	8104.00
	6.00	-122.00	205.00	179.00	8127.00	8102.00
	-16.00	-154.00	207.00	180.00	8128.00	8103.00
	-58.00	-158.00	254.00	148.00	8128.00	8103.00
	-74.00	-125.00	338.00	151.00	8128.00	8104.00
	-64.00	-73.00	268.00	140.00	8129.00	8104.00
	-75.00	-64.00	107.00	116.00	8129.00	8104.00
	-93.00	-101.00	57.00	92.00	8129.00	8104.00
	-93.00	-105.00	11.00	62.00	8128.00	8104.00
	-81.00	-58.00	-27.00	16.00	8128.00	8103.00
	-66.00	-13.00	-65.00	-16.00	8128.00	8103.00
	-20.00	25.00	-91.00	-45.00	8129.00	8104.00
	20.00	40.00	-118.00	-81.00	8128.00	8103.00
	52.00	42.00	-142.00	-94.00	8129.00	8104.00
	108.00	47.00	-172.00	-104.00	8128.00	8103.00
	96.00	75.00	-202.00	-124.00	8128.00	8103.00
	58.00	78.00	-232.00	-166.00	8129.00	8104.00
	-17.00	45.00	-239.00	-158.00	8129.00	8104.00
	-18.00	51.00	-224.00	-133.00	8128.00	8103.00
	91.00	36.00	-154.00	-66.00	8128.00	8103.00
	167.00	12.00	-114.00	-15.00	8129.00	8104.00
	142.00	-5.00	-141.00	7.00	8127.00	8103.00
	87.00	-3.00	-122.00	8.00	8127.00	8103.00
	41.00	4.00	-65.00	9.00	8129.00	8104.00
	36.00	5.00	-4.00	14.00	8127.00	8103.00
	11.00	-25.00	84.00	58.00	8128.00	8103.00
	-39.00	-59.00	134.00	121.00	8128.00	8103.00
	-86.00	-93.00	170.00	162.00	8128.00	8103.00
	-130.00	-99.00	195.00	149.00	8129.00	8103.00
	-113.00	-87.00	151.00	135.00	8128.00	8104.00
	-107.00	-61.00	132.00	64.00	8128.00	8103.00
	-117.00	-37.00	103.00	6.00	8127.00	8103.00
	-106.00	-17.00	55.00	3.00	8127.00	8103.00
	-89.00	-13.00	32.00	19.00	8128.00	8104.00
	-56.00	10.00	-14.00	6.00	8128.00	8104.00
	-13.00	29.00	-59.00	-20.00	8129.00	8104.00
	15.00	61.00	-93.00	-61.00	8128.00	8103.00
	-24.00	70.00	-67.00	-98.00	8129.00	8104.00
	20.00	64.00	-70.00	-158.00	8128.00	8103.00
	118.00	18.00	-100.00	-144.00	8129.00	8104.00
	89.00	-19.00	-111.00	-131.00	8129.00	8104.00
	87.00	-18.00	-132.00	-130.00	8129.00	8104.00
	118.00	13.00	-191.00	-137.00	8128.00	8103.00
	125.00	6.00	-155.00	-127.00	8129.00	8104.00
	43.00	-13.00	-98.00	-84.00	8128.00	8104.00
	-26.00	-9.00	44.00	-5.00	8128.00	8103.00
	-19.00	13.00	178.00	87.00	8128.00	8104.00
	-28.00	46.00	109.00	146.00	8128.00	8103.00
	-37.00	81.00	91.00	202.00	8129.00	8103.00
	-46.00	58.00	147.00	266.00	8130.00	8104.00
	-89.00	28.00	220.00	255.00	8128.00	8103.00
	-116.00	27.00	303.00	168.00	8128.00	8103.00
	-96.00	42.00	294.00	118.00	8128.00	8103.00
	-41.00	37.00	184.00	58.00	8128.00	8103.00
	-10.00	-2.00	71.00	-3.00	8129.00	8104.00
	2.00	-56.00	24.00	-46.00	8129.00	8104.00
	49.00	-54.00	-24.00	-92.00	8129.00	8103.00
	69.00	-3.00	-140.00	-159.00	8128.00	8103.00
	125.00	62.00	-255.00	-191.00	8128.00	8103.00
	140.00	62.00	-317.00	-213.00	8128.00	8104.00
	-36.00	83.00	-335.00	-224.00	8128.00	8104.00
	-117.00	95.00	-303.00	-192.00	8129.00	8105.00
	-39.00	110.00	-303.00	-167.00	8128.00	8103.00
	71.00	121.00	-239.00	-111.00	8129.00	8104.00
	138.00	77.00	-249.00	-33.00	8128.00	8103.00
	92.00	54.00	-142.00	32.00	8128.00	8104.00
	74.00	-25.00	236.00	81.00	8128.00	8103.00
	43.00	-79.00	531.00	145.00	8128.00	8103.00
	-15.00	-157.00	367.00	207.00	8129.00	8104.00
	-69.00	-184.00	426.00	201.00	8129.00	8104.00
	-123.00	-177.00	399.00	191.00	8129.00	8104.00
	-151.00	-149.00	272.00	163.00	8128.00	8103.00
	-142.00	-76.00	219.00	125.00	8129.00	8104.00
	-113.00	-19.00	167.00	97.00	8128.00	8104.00
	-105.00	-17.00	128.00	93.00	8128.00	8104.00
	-62.00	-21.00	80.00	63.00	8128.00	8103.00
	-11.00	-17.00	88.00	17.00	8128.00	8104.00
	51.00	-2.00	90.00	-13.00	8129.00	8103.00
	71.00	2.00	13.00	-11.00	8128.00	8103.00
	83.00	-25.00	-28.00	-12.00	8129.00	8104.00
	89.00	-20.00	-68.00	-36.00	8128.00	8103.00
	60.00	6.00	-130.00	-72.00	8129.00	8104.00
	54.00	43.00	-186.00	-129.00	8128.00	8103.00
	47.00	104.00	-214.00	-253.00	8128.00	8103.00
	7.00	154.00	-255.00	-351.00	8128.00	8104.00
	-9.00	147.00	-267.00	-336.00	8128.00	8104.00
	-49.00	73.00	-259.00	-247.00	8128.00	8103.00
	-69.00	11.00	-269.00	-140.00	8129.00	8104.00
	-10.00	-54.00	-286.00	-43.00	8128.00	8103.00
	35.00	-105.00	-235.00	53.00	8128.00	8104.00
	64.00	-136.00	-110.00	129.00	8128.00	8104.00
	72.00	-140.00	111.00	182.00	8128.00	8104.00
	81.00	-114.00	268.00	236.00	8129.00	8104.00
	89.00	-106.00	250.00	329.00	8129.00	8103.00
	43.00	-112.00	165.00	382.00	8129.00	8104.00
	10.00	-82.00	120.00	345.00	8129.00	8103.00
	-8.00	-47.00	140.00	211.00	8128.00	8103.00
	-16.00	-22.00	181.00	87.00	8128.00	8104.00
	-14.00	25.00	169.00	-25.00	8129.00	8103.00
	-8.00	70.00	112.00	-74.00	8129.00	8104.00
	-9.00	99.00	36.00	-95.00	8128.00	8104.00
	-17.00	112.00	-33.00	-102.00	8129.00	8104.00
	-25.00	84.00	-74.00	-93.00	8128.00	8103.00
	-72.00	60.00	-95.00	-89.00	8128.00	8104.00
	-95.00	41.00	-104.00	-120.00	8128.00	8104.00
	-78.00	50.00	-141.00	-151.00	8129.00	8103.00
	-56.00	72.00	-173.00	-165.00	8128.00	8103.00
	9.00	67.00	-195.00	-173.00	8127.00	8103.00
	1.00	17.00	-210.00	-177.00	8128.00	8103.00
	-96.00	2.00	-206.00	-151.00	8128.00	8104.00
	-54.00	20.00	-137.00	-154.00	8128.00	8103.00
	5.00	-20.00	-38.00	-162.00	8129.00	8104.00
	90.00	-105.00	-100.00	-102.00	8128.00	8104.00
	154.00	-171.00	-127.00	-33.00	8128.00	8103.00
	119.00	-140.00	-89.00	20.00	8128.00	8104.00
	52.00	-97.00	-38.00	88.00	8129.00	8103.00
	34.00	-77.00	9.00	141.00	8128.00	8103.00
	37.00	6.00	80.00	169.00	8129.00	8104.00
	40.00	99.00	173.00	190.00	8129.00	8104.00
	-16.00	148.00	329.00	202.00	8129.00	8104.00
	-63.00	175.00	236.00	190.00	8128.00	8104.00
	-79.00	138.00	147.00	182.00	8129.00	8104.00
	-105.00	73.00	138.00	101.00	8128.00	8103.00
	-93.00	30.00	139.00	16.00	8128.00	8103.00
	-85.00	3.00	127.00	4.00	8127.00	8103.00
	-94.00	11.00	97.00	-6.00	8129.00	8104.00
	-99.00	-12.00	74.00	-5.00	8129.00	8103.00
	-123.00	-43.00	69.00	6.00	8128.00	8104.00
	-129.00	-45.00	45.00	1.00	8129.00	8104.00
	-102.00	-70.00	-13.00	-25.00	8129.00	8103.00
	-37.00	-56.00	-73.00	-44.00	8128.00	8103.00
	24.00	-56.00	-139.00	-65.00	8130.00	8105.00
	-12.00	-75.00	-184.00	-90.00	8129.00	8104.00
	-77.00	-59.00	-222.00	-112.00	8128.00	8104.00
	-71.00	-36.00	-217.00	-124.00	8128.00	8104.00
	-8.00	-36.00	-163.00	-99.00	8127.00	8103.00
	42.00	-3.00	-67.00	-65.00	8128.00	8103.00
	92.00	34.00	-86.00	-35.00	8128.00	8104.00
	152.00	70.00	-86.00	-24.00	8128.00	8103.00
	170.00	64.00	-12.00	1.00	8128.00	8103.00
	180.00	42.00	77.00	25.00	8127.00	8103.00
	222.00	19.00	91.00	65.00	8128.00	8103.00
	216.00	-11.00	146.00	81.00	8128.00	8103.00
	122.00	-33.00	221.00	73.00	8129.00	8105.00
	44.00	-45.00	247.00	51.00	8128.00	8103.00
	19.00	-24.00	179.00	23.00	8127.00	8103.00
	-44.00	18.00	139.00	-3.00	8128.00	8104.00
	-50.00	40.00	103.00	-7.00	8128.00	8103.00
	-56.00	33.00	55.00	-19.00	8128.00	8103.00
	-61.00	20.00	15.00	-13.00	8129.00	8103.00
	-57.00	22.00	-15.00	-10.00	8128.00	8103.00
	-47.00	21.00	-39.00	-16.00	8129.00	8103.00
	-40.00	28.00	-62.00	-26.00	8128.00	8103.00
	-35.00	27.00	-78.00	-40.00	8128.00	8103.00
	-33.00	52.00	-85.00	-54.00	8128.00	8103.00
	-27.00	68.00	-94.00	-59.00	8128.00	8104.00
	-13.00	55.00	-112.00	-58.00	8128.00	8103.00
	31.00	52.00	-158.00	-82.00	8128.00	8103.00
	84.00	56.00	-225.00	-122.00	8129.00	8104.00
	87.00	40.00	-227.00	-148.00	8128.00	8103.00
	13.00	29.00	-221.00	-158.00	8129.00	8103.00
	71.00	52.00	-208.00	-143.00	8128.00	8103.00
	145.00	19.00	-197.00	-82.00	8129.00	8104.00
	146.00	-38.00	-157.00	-8.00	8128.00	8103.00
	131.00	-74.00	-90.00	65.00	8128.00	8104.00
	58.00	-127.00	4.00	117.00	8129.00	8103.00
	-29.00	-151.00	143.00	144.00	8128.00	8103.00
	-97.00	-153.00	226.00	150.00	8129.00	8104.00
	-140.00	-158.00	258.00	177.00	8129.00	8104.00
	-182.00	-154.00	312.00	201.00	8128.00	8103.00
	-206.00	-152.00	265.00	221.00	8129.00	8104.00
	-210.00	-154.00	192.00	246.00	8129.00	8103.00
	-188.00	-154.00	229.00	262.00	8129.00	8103.00
	-150.00	-89.00	223.00	150.00	8128.00	8104.00
	-98.00	-26.00	130.00	23.00	8128.00	8104.00
	-44.00	37.00	69.00	-60.00	8129.00	8104.00
	30.00	102.00	-28.00	-108.00	8129.00	8104.00
	140.00	127.00	-131.00	-197.00	8129.00	8104.00
	164.00	143.00	-199.00	-237.00	8128.00	8103.00
	194.00	137.00	-246.00	-288.00	8128.00	8104.00
	99.00	84.00	-241.00	-260.00	8128.00	8104.00
	-44.00	16.00	-260.00	-205.00	8129.00	8104.00
	-73.00	-38.00	-284.00	-114.00	8128.00	8103.00
	-2.00	-18.00	-265.00	-44.00	8129.00	8104.00
	90.00	-8.00	-145.00	13.00	8128.00	8104.00
	122.00	-8.00	40.00	76.00	8128.00	8103.00
	101.00	-17.00	329.00	176.00	8128.00	8103.00
	33.00	1.00	361.00	239.00	8129.00	8104.00
	-18.00	15.00	332.00	257.00	8129.00	8104.00
	-85.00	-12.00	240.00	261.00	8128.00	8103.00
	-151.00	-21.00	174.00	237.00	8129.00	8103.00
	-179.00	-5.00	201.00	149.00	8128.00	8103.00
	-151.00	43.00	177.00	56.00	8128.00	8103.00
	-128.00	67.00	122.00	-28.00	8128.00	8103.00
	-98.00	80.00	72.00	-82.00	8128.00	8104.00
	-36.00	85.00	6.00	-102.00	8129.00	8104.00
	33.00	84.00	-46.00	-106.00	8129.00	8104.00
	32.00	72.00	-71.00	-103.00	8129.00	8104.00
	52.00	59.00	-72.00	-93.00	8128.00	8104.00
	56.00	43.00	-101.00	-81.00	8128.00	8103.00
	70.00	28.00	-98.00	-59.00	8129.00	8104.00
	75.00	11.00	-52.00	-35.00	8128.00	8104.00
	76.00	1.00	-17.00	-24.00	8129.00	8104.00
	68.00	21.00	-89.00	-53.00	8129.00	8104.00
	82.00	42.00	-140.00	-93.00	8129.00	8104.00
	119.00	-15.00	-149.00	-143.00	8128.00	8103.00
	119.00	-99.00	-153.00	-131.00	8128.00	8103.00
	85.00	-116.00	-157.00	-103.00	8128.00	8104.00
	13.00	-91.00	-165.00	-85.00	8128.00	8103.00
	-68.00	-66.00	-162.00	-58.00	8128.00	8103.00
	-130.00	-52.00	-150.00	-43.00	8129.00	8104.00
	-114.00	-26.00	-133.00	-33.00	8129.00	8104.00
	-75.00	-2.00	-106.00	-29.00	8128.00	8103.00
	-48.00	-27.00	-26.00	-1.00	8129.00	8104.00
	-26.00	-80.00	41.00	41.00	8128.00	8104.00
	-17.00	-117.00	124.00	85.00	8128.00	8103.00
	-45.00	-131.00	170.00	108.00	8128.00	8104.00
	-94.00	-114.00	187.00	103.00	8128.00	8104.00
	-74.00	-67.00	162.00	54.00	8128.00	8103.00
	-35.00	35.00	135.00	-2.00	8128.00	8103.00
	-32.00	163.00	100.00	-50.00	8129.00	8103.00
	-6.00	191.00	38.00	-66.00	8129.00	8103.00
	52.00	178.00	-2.00	-64.00	8129.00	8104.00
	85.00	146.00	-74.00	-51.00	8129.00	8104.00
	83.00	108.00	-161.00	-65.00	8129.00	8104.00
	29.00	87.00	-177.00	-81.00	8128.00	8103.00
	6.00	71.00	-143.00	-122.00	8129.00	8103.00
	25.00	19.00	-79.00	-106.00	8129.00	8104.00
	38.00	-30.00	-72.00	-59.00	8128.00	8103.00
	20.00	-58.00	-106.00	5.00	8127.00	8103.00
	-10.00	-64.00	-92.00	54.00	8128.00	8103.00
	-69.00	-56.00	-34.00	92.00	8128.00	8103.00
	-42.00	-14.00	13.00	76.00	8127.00	8103.00
	14.00	15.00	149.00	64.00	8128.00	8103.00
	43.00	16.00	307.00	75.00	8128.00	8104.00
	10.00	-14.00	246.00	116.00	8128.00	8103.00
	94.00	-46.00	139.00	176.00	8128.00	8103.00
	168.00	-69.00	-4.00	189.00	8128.00	8103.00
	150.00	-62.00	-81.00	95.00	8128.00	8103.00
	110.00	-38.00	-71.00	-29.00	8128.00	8103.00
	99.00	-51.00	-107.00	-98.00	8127.00	8103.00
	78.00	-43.00	-166.00	-134.00	8128.00	8103.00
	57.00	-37.00	-185.00	-96.00	8128.00	8104.00
	0.00	-44.00	-163.00	-25.00	8128.00	8103.00
	-15.00	-33.00	-101.00	42.00	8128.00	8103.00
	-38.00	-41.00	74.00	114.00	8127.00	8102.00
	-80.00	-62.00	424.00	192.00	8128.00	8103.00
	-101.00	-75.00	672.00	262.00	8128.00	8102.00
	-130.00	-70.00	555.00	305.00	8129.00	8103.00
	-164.00	-58.00	332.00	290.00	8128.00	8102.00
	-156.00	-46.00	166.00	234.00	8128.00	8102.00
	-150.00	-35.00	63.00	182.00	8128.00	8103.00
	-152.00	-22.00	3.00	101.00	8128.00	8103.00
	-118.00	17.00	-43.00	8.00	8128.00	8103.00
	-56.00	24.00	-67.00	-41.00	8128.00	8104.00
	-24.00	37.00	-83.00	-64.00	8128.00	8103.00
