RI	RS	VM	VL
403.36950249353714	218.49181385066595	-3008.464206097631	-151.2635634350764
588.2471911364083	252.1059390584607	-2756.35826703917	67.22825041558951
470.5977529091267	50.42118781169214	-2134.4969506949674	-33.61412520779476
-33.61412520779476	-16.80706260389738	-1865.5839490326093	-537.8260033247161
-235.29887645456336	67.22825041558951	-369.7553772857424	-1193.301444876714
-168.07062603897378	151.2635634350764	-1714.3203855975325	-991.6166936299454
-134.45650083117903	252.1059390584607	-3848.8173362925	-890.7743180065611
-235.29887645456336	151.2635634350764	-1697.5133229936355	-1226.9155700845088
-336.14125207794757	-50.42118781169214	3714.360835461321	-722.7036919675874
-470.5977529091267	151.2635634350764	3260.5701451560917	-336.14125207794757
-369.7553772857424	184.8776886428712	1210.1085074806113	722.7036919675874
-638.6683789481004	-100.84237562338429	-84.03531301948689	1462.214446539072
-773.1248797792795	-336.14125207794757	-789.9319423831769	1361.3720709156878
-655.4754415519978	-352.948314681845	-2084.0757628832753	521.0189407208188
-470.5977529091267	-268.91300166235806	-3210.1489573443996	-184.8776886428712
-436.9836277013319	-168.07062603897378	-2521.059390584607	-470.5977529091267
-403.36950249353714	-218.49181385066595	-554.6330659286136	-621.861316344203
-470.5977529091267	-302.5271268701528	-672.2825041558951	420.17656509743455
-420.17656509743455	-336.14125207794757	-1529.4426969546614	1361.3720709156878
-201.68475124676857	-319.3341894740502	-1916.0051368443012	1764.7415734092249
-67.22825041558951	-285.72006426625546	-1411.79325872738	302.5271268701528
33.61412520779476	-151.2635634350764	-1764.7415734092249	-655.4754415519978
151.2635634350764	0.0	-924.3884432143559	-873.9672554026638
302.5271268701528	168.07062603897378	806.7390049870743	-655.4754415519978
302.5271268701528	184.8776886428712	3008.464206097631	117.64943822728168
403.36950249353714	235.29887645456336	3848.8173362925	571.4401285325109
554.6330659286136	588.2471911364083	605.0542537403056	-235.29887645456336
605.0542537403056	588.2471911364083	-235.29887645456336	-806.7390049870743
571.4401285325109	453.7906903052293	1126.0731944611243	-773.1248797792795
605.0542537403056	453.7906903052293	1378.179133519585	-521.0189407208188
369.7553772857424	268.91300166235806	1394.9861961234824	-285.72006426625546
201.68475124676857	-218.49181385066595	2487.445265376812	470.5977529091267
-50.42118781169214	-571.4401285325109	3529.4831468184498	386.56243988963973
-252.1059390584607	-521.0189407208188	3361.4125207794764	-218.49181385066595
-235.29887645456336	-521.0189407208188	638.6683789481004	16.80706260389738
-134.45650083117903	-453.7906903052293	-184.8776886428712	33.61412520779476
-100.84237562338429	-403.36950249353714	218.49181385066595	403.36950249353714
-201.68475124676857	-436.9836277013319	1277.3367578962009	857.1601927987663
-201.68475124676857	-319.3341894740502	1731.12744820143	689.0895667597925
-117.64943822728168	-16.80706260389738	1916.0051368443012	-67.22825041558951
67.22825041558951	268.91300166235806	453.7906903052293	-571.4401285325109
420.17656509743455	453.7906903052293	-1462.214446539072	-1159.6873196689191
1058.844944045535	773.1248797792795	-2521.059390584607	-1932.8121994481987
2184.9181385066595	1210.1085074806113	-4235.37977618214	-2201.725201110557
2235.3393263183516	1142.8802570650219	-4571.521028260087	-2134.4969506949674
1529.4426969546614	773.1248797792795	-789.9319423831769	-1563.0568221624562
588.2471911364083	352.948314681845	4840.434029922445	470.5977529091267
-436.9836277013319	268.91300166235806	2084.0757628832753	2084.0757628832753
-1462.214446539072	-252.1059390584607	1495.828571746867	4184.958588370448
-2352.9887645456333	-974.809631026048	-1058.844944045535	3479.0619590067577
-2722.7441418313756	-991.6166936299454	-2588.287641000197	773.1248797792795
-2453.8311401690175	-789.9319423831769	-2554.6735157924018	-739.5107545714848
-1546.249759558559	-638.6683789481004	-1663.8991977858407	33.61412520779476
-1058.844944045535	-554.6330659286136	-470.5977529091267	-638.6683789481004
-873.9672554026638	-504.2118781169214	-285.72006426625546	-1260.5296952923036
-453.7906903052293	-302.5271268701528	-1445.4073839351747	-1109.2661318572273
-50.42118781169214	-168.07062603897378	-3058.885393909323	-1159.6873196689191
436.9836277013319	-50.42118781169214	-4437.064527428909	-1008.4237562338428
739.5107545714848	50.42118781169214	-4672.363403883472	-1075.6520066494322
806.7390049870743	100.84237562338429	-4453.871590032806	-1075.6520066494322
689.0895667597925	100.84237562338429	-2084.0757628832753	-1495.828571746867
403.36950249353714	-16.80706260389738	3848.8173362925	-1428.6003213312774
201.68475124676857	-100.84237562338429	6403.490852084902	-319.3341894740502
33.61412520779476	-134.45650083117903	8537.98780277987	1243.722632688406
-201.68475124676857	-218.49181385066595	7680.827609981103	2100.8828254871723
-201.68475124676857	-134.45650083117903	7243.84398227977	2722.7441418313756
-168.07062603897378	67.22825041558951	3663.939647649629	1949.619262052096
-117.64943822728168	84.03531301948689	-168.07062603897378	1058.844944045535
100.84237562338429	235.29887645456336	-2184.9181385066595	-285.72006426625546
252.1059390584607	386.56243988963973	-5378.260033247161	-1260.5296952923036
436.9836277013319	453.7906903052293	-6470.71910250049	-1008.4237562338428
436.9836277013319	268.91300166235806	-2857.200642662555	-252.1059390584607
235.29887645456336	-134.45650083117903	2201.725201110557	722.7036919675874
184.8776886428712	-268.91300166235806	3462.25489640286	1042.0378814416376
117.64943822728168	-319.3341894740502	2134.4969506949674	1310.9508831039957
33.61412520779476	-504.2118781169214	941.1955058182534	1596.670947370251
-50.42118781169214	-487.404815513024	487.404815513024	268.91300166235806
100.84237562338429	-151.2635634350764	-1630.2850725780459	-1159.6873196689191
268.91300166235806	-33.61412520779476	-3966.4667745197817	-1344.5650083117903
470.5977529091267	151.2635634350764	-4672.363403883472	-1210.1085074806113
672.2825041558951	100.84237562338429	-3260.5701451560917	-739.5107545714848
605.0542537403056	0.0	-1294.1438205000984	-403.36950249353714
453.7906903052293	100.84237562338429	2336.181701941736	-100.84237562338429
218.49181385066595	16.80706260389738	3529.4831468184498	-84.03531301948689
-100.84237562338429	184.8776886428712	2268.953451526146	-705.89662936369
-420.17656509743455	151.2635634350764	1428.6003213312774	-84.03531301948689
-537.8260033247161	151.2635634350764	773.1248797792795	773.1248797792795
-705.89662936369	-134.45650083117903	-1613.4780099741486	1025.2308188377403
-638.6683789481004	-184.8776886428712	-1798.3556986170197	470.5977529091267
-369.7553772857424	-168.07062603897378	-2117.68988809107	117.64943822728168
-100.84237562338429	-16.80706260389738	-1865.5839490326093	-521.0189407208188
386.56243988963973	168.07062603897378	-2067.2687002793778	-991.6166936299454
655.4754415519978	201.68475124676857	-1882.3910116365068	-1058.844944045535
571.4401285325109	168.07062603897378	-2621.9017662079914	-537.8260033247161
352.948314681845	168.07062603897378	-2504.2523279807097	-470.5977529091267
134.45650083117903	67.22825041558951	-2420.2170149612225	-386.56243988963973
-218.49181385066595	-84.03531301948689	-1529.4426969546614	-67.22825041558951
-621.861316344203	-537.8260033247161	-1327.7579457078932	453.7906903052293
-789.9319423831769	-537.8260033247161	-100.84237562338429	1058.844944045535
-773.1248797792795	-487.404815513024	1529.4426969546614	1378.179133519585
-806.7390049870743	-638.6683789481004	4958.083468149727	1394.9861961234824
-705.89662936369	-487.404815513024	6033.735474799159	1075.6520066494322
-470.5977529091267	-117.64943822728168	4319.415089201627	403.36950249353714
-403.36950249353714	-16.80706260389738	3428.640771195065	184.8776886428712
-386.56243988963973	33.61412520779476	1764.7415734092249	-352.948314681845
-252.1059390584607	302.5271268701528	67.22825041558951	-924.3884432143559
50.42118781169214	571.4401285325109	-1462.214446539072	-2151.3040132988644
504.2118781169214	722.7036919675874	-2033.6545750715832	-3092.499519117118
789.9319423831769	789.9319423831769	-1210.1085074806113	-3916.0455867080896
756.3178171753822	638.6683789481004	1378.179133519585	-3176.5348321366046
621.861316344203	403.36950249353714	5663.980097513418	-1731.12744820143
436.9836277013319	-84.03531301948689	6672.40385374726	823.5460675909717
151.2635634350764	-453.7906903052293	6974.930980617413	4100.923275350961
168.07062603897378	-268.91300166235806	3613.518459837937	4201.765650974345
33.61412520779476	-235.29887645456336	-806.7390049870743	2537.8664531885042
-151.2635634350764	-134.45650083117903	-4453.871590032806	537.8260033247161
-319.3341894740502	-201.68475124676857	-4537.906903052292	33.61412520779476
-302.5271268701528	-403.36950249353714	-4168.151525766551	336.14125207794757
-319.3341894740502	-537.8260033247161	-3260.5701451560917	857.1601927987663
-403.36950249353714	-605.0542537403056	-3008.464206097631	941.1955058182534
-453.7906903052293	-487.404815513024	-3899.238524104192	436.9836277013319
-302.5271268701528	-134.45650083117903	-3983.273837123679	-134.45650083117903
-168.07062603897378	84.03531301948689	-3613.518459837937	-302.5271268701528
-151.2635634350764	50.42118781169214	-2588.287641000197	184.8776886428712
-235.29887645456336	-16.80706260389738	-655.4754415519978	487.404815513024
-168.07062603897378	100.84237562338429	2689.1300166235806	336.14125207794757
-100.84237562338429	33.61412520779476	4184.958588370448	369.7553772857424
-67.22825041558951	100.84237562338429	991.6166936299454	-184.8776886428712
67.22825041558951	235.29887645456336	-369.7553772857424	-806.7390049870743
470.5977529091267	302.5271268701528	-2235.3393263183516	-873.9672554026638
1210.1085074806113	319.3341894740502	-3025.2712687015287	-789.9319423831769
1512.6356343507643	487.404815513024	-4184.958588370448	-1495.828571746867
1327.7579457078932	420.17656509743455	-2420.2170149612225	-2050.4616376754807
823.5460675909717	168.07062603897378	1294.1438205000984	-1831.9698238248145
50.42118781169214	117.64943822728168	3327.7983955716813	-890.7743180065611
-470.5977529091267	-84.03531301948689	3294.1842703638868	840.3531301948691
-840.3531301948691	-369.7553772857424	2437.02407756512	1563.0568221624562
-991.6166936299454	-336.14125207794757	2000.0404498637884	1193.301444876714
-941.1955058182534	-369.7553772857424	3226.956019948297	689.0895667597925
-588.2471911364083	-504.2118781169214	3932.852649311987	151.2635634350764
-100.84237562338429	-319.3341894740502	2890.8147678703494	-1546.249759558559
184.8776886428712	-218.49181385066595	1697.5133229936355	-1714.3203855975325
151.2635634350764	-134.45650083117903	-201.68475124676857	-1008.4237562338428
201.68475124676857	67.22825041558951	-3714.360835461321	-268.91300166235806
403.36950249353714	352.948314681845	-3949.659711915884	151.2635634350764
268.91300166235806	386.56243988963973	-4386.643339617216	840.3531301948691
67.22825041558951	218.49181385066595	-4554.71396565619	403.36950249353714
50.42118781169214	319.3341894740502	-3647.1325850457315	-302.5271268701528
84.03531301948689	386.56243988963973	352.948314681845	-722.7036919675874
151.2635634350764	268.91300166235806	4168.151525766551	-705.89662936369
-134.45650083117903	50.42118781169214	4084.1162127470634	235.29887645456336
-521.0189407208188	0.0	3243.7630825521946	840.3531301948691
-857.1601927987663	-403.36950249353714	4521.099840448395	1798.3556986170197
-773.1248797792795	-319.3341894740502	2554.6735157924018	1899.198074240404
-621.861316344203	-285.72006426625546	-705.89662936369	1882.3910116365068
-285.72006426625546	-201.68475124676857	-5294.224720227675	924.3884432143559
50.42118781169214	-134.45650083117903	-6168.191975630339	-403.36950249353714
100.84237562338429	-319.3341894740502	-2554.6735157924018	-621.861316344203
100.84237562338429	-302.5271268701528	453.7906903052293	-806.7390049870743
84.03531301948689	-84.03531301948689	-1361.3720709156878	-1243.722632688406
0.0	-117.64943822728168	739.5107545714848	-554.6330659286136
-151.2635634350764	-218.49181385066595	3226.956019948297	352.948314681845
-268.91300166235806	-201.68475124676857	436.9836277013319	487.404815513024
-252.1059390584607	-50.42118781169214	168.07062603897378	285.72006426625546
16.80706260389738	-33.61412520779476	554.6330659286136	890.7743180065611
0.0	84.03531301948689	1008.4237562338428	941.1955058182534
0.0	16.80706260389738	941.1955058182534	352.948314681845
100.84237562338429	134.45650083117903	974.809631026048	-352.948314681845
84.03531301948689	100.84237562338429	991.6166936299454	-470.5977529091267
134.45650083117903	33.61412520779476	2151.3040132988644	-235.29887645456336
84.03531301948689	16.80706260389738	3310.991332967784	-252.1059390584607
84.03531301948689	67.22825041558951	2336.181701941736	-605.0542537403056
168.07062603897378	100.84237562338429	218.49181385066595	-789.9319423831769
571.4401285325109	0.0	-705.89662936369	-100.84237562338429
907.5813806104586	100.84237562338429	-1327.7579457078932	-605.0542537403056
907.5813806104586	201.68475124676857	-2857.200642662555	-1647.0921351819434
873.9672554026638	268.91300166235806	-3462.25489640286	-2806.7794548508623
487.404815513024	134.45650083117903	-773.1248797792795	-2336.181701941736
84.03531301948689	168.07062603897378	521.0189407208188	-1294.1438205000984
-117.64943822728168	67.22825041558951	773.1248797792795	-16.80706260389738
-487.404815513024	-420.17656509743455	-50.42118781169214	1327.7579457078932
-521.0189407208188	-386.56243988963973	-470.5977529091267	1630.2850725780459
-537.8260033247161	-386.56243988963973	1092.4590692533297	1243.722632688406
-386.56243988963973	-235.29887645456336	-436.9836277013319	369.7553772857424
-235.29887645456336	-134.45650083117903	1445.4073839351747	521.0189407208188
-184.8776886428712	-134.45650083117903	2100.8828254871723	958.0025684221506
117.64943822728168	134.45650083117903	-974.809631026048	252.1059390584607
235.29887645456336	252.1059390584607	-3848.8173362925	-773.1248797792795
453.7906903052293	369.7553772857424	-4184.958588370448	-2033.6545750715832
756.3178171753822	504.2118781169214	-4420.257464825011	-1294.1438205000984
487.404815513024	537.8260033247161	-6269.034351253723	-33.61412520779476
-84.03531301948689	319.3341894740502	-3832.0102736886024	1042.0378814416376
-655.4754415519978	-302.5271268701528	3714.360835461321	1966.4263246559935
-1092.4590692533297	-554.6330659286136	6016.928412195262	2789.972392246965
-1226.9155700845088	-806.7390049870743	4437.064527428909	2638.708828811889
-1260.5296952923036	-941.1955058182534	3176.5348321366046	1764.7415734092249
-1075.6520066494322	-789.9319423831769	319.3341894740502	621.861316344203
-638.6683789481004	-487.404815513024	-1126.0731944611243	-151.2635634350764
-235.29887645456336	-285.72006426625546	-1949.619262052096	-352.948314681845
100.84237562338429	-100.84237562338429	-1932.8121994481987	-537.8260033247161
134.45650083117903	-16.80706260389738	-773.1248797792795	-621.861316344203
100.84237562338429	-16.80706260389738	-773.1248797792795	-789.9319423831769
184.8776886428712	67.22825041558951	-605.0542537403056	-1159.6873196689191
252.1059390584607	117.64943822728168	-386.56243988963973	-1109.2661318572273
453.7906903052293	319.3341894740502	33.61412520779476	-1462.214446539072
621.861316344203	453.7906903052293	2336.181701941736	-1529.4426969546614
773.1248797792795	588.2471911364083	3109.3065817210154	-2151.3040132988644
1092.4590692533297	638.6683789481004	621.861316344203	-1596.670947370251
1092.4590692533297	369.7553772857424	1126.0731944611243	-84.03531301948689
857.1601927987663	403.36950249353714	1663.8991977858407	470.5977529091267
420.17656509743455	-16.80706260389738	-352.948314681845	1226.9155700845088
218.49181385066595	-100.84237562338429	1798.3556986170197	2050.4616376754807
-151.2635634350764	-302.5271268701528	4941.27640554583	2672.3229540196835
-285.72006426625546	-168.07062603897378	3781.5890858769103	1731.12744820143
-319.3341894740502	-386.56243988963973	1781.5486360131222	1058.844944045535
-403.36950249353714	-319.3341894740502	-470.5977529091267	-470.5977529091267
-285.72006426625546	-302.5271268701528	-3865.6243988963975	-184.8776886428712
-252.1059390584607	-521.0189407208188	-4353.029214409422	487.404815513024
-252.1059390584607	-67.22825041558951	-4638.749278675677	-521.0189407208188
-235.29887645456336	-84.03531301948689	-4084.1162127470634	-571.4401285325109
-67.22825041558951	-84.03531301948689	-2403.4099523573254	-958.0025684221506
-134.45650083117903	50.42118781169214	-974.809631026048	-1310.9508831039957
-487.404815513024	16.80706260389738	2033.6545750715832	-1092.4590692533297
-655.4754415519978	134.45650083117903	1647.0921351819434	-184.8776886428712
-739.5107545714848	134.45650083117903	1714.3203855975325	1109.2661318572273
-571.4401285325109	-33.61412520779476	-756.3178171753822	1193.301444876714
-504.2118781169214	-184.8776886428712	-1109.2661318572273	689.0895667597925
-470.5977529091267	-33.61412520779476	-974.809631026048	-218.49181385066595
-537.8260033247161	33.61412520779476	-1529.4426969546614	-705.89662936369
-285.72006426625546	252.1059390584607	-2638.708828811889	-1764.7415734092249
319.3341894740502	436.9836277013319	-3462.25489640286	-2571.4805783962993
823.5460675909717	470.5977529091267	-2739.5512044352727	-2352.9887645456333
974.809631026048	453.7906903052293	-2823.58651745476	-1865.5839490326093
806.7390049870743	470.5977529091267	-369.7553772857424	-1243.722632688406
436.9836277013319	268.91300166235806	4184.958588370448	-50.42118781169214
84.03531301948689	-336.14125207794757	5260.61059501988	1512.6356343507643
-134.45650083117903	-689.0895667597925	5630.365972305623	1764.7415734092249
-319.3341894740502	-705.89662936369	3630.3255224418344	907.5813806104586
-386.56243988963973	-554.6330659286136	1310.9508831039957	605.0542537403056
-268.91300166235806	-201.68475124676857	-235.29887645456336	571.4401285325109
-201.68475124676857	84.03531301948689	521.0189407208188	336.14125207794757
16.80706260389738	151.2635634350764	470.5977529091267	1243.722632688406
0.0	67.22825041558951	67.22825041558951	1495.828571746867
-33.61412520779476	-84.03531301948689	974.809631026048	1210.1085074806113
-50.42118781169214	-302.5271268701528	2184.9181385066595	1025.2308188377403
-67.22825041558951	-218.49181385066595	2958.043018285939	806.7390049870743
-50.42118781169214	-50.42118781169214	436.9836277013319	33.61412520779476
16.80706260389738	-134.45650083117903	67.22825041558951	33.61412520779476
100.84237562338429	-235.29887645456336	369.7553772857424	252.1059390584607
117.64943822728168	-235.29887645456336	302.5271268701528	403.36950249353714
117.64943822728168	-285.72006426625546	302.5271268701528	50.42118781169214
151.2635634350764	-168.07062603897378	1495.828571746867	-621.861316344203
285.72006426625546	33.61412520779476	2705.937079227478	-840.3531301948691
352.948314681845	201.68475124676857	1865.5839490326093	-554.6330659286136
252.1059390584607	252.1059390584607	991.6166936299454	-285.72006426625546
218.49181385066595	369.7553772857424	-537.8260033247161	-840.3531301948691
436.9836277013319	537.8260033247161	-2621.9017662079914	-1277.3367578962009
638.6683789481004	537.8260033247161	-5008.504655961419	-739.5107545714848
689.0895667597925	352.948314681845	-5092.539968980906	-16.80706260389738
621.861316344203	84.03531301948689	-4874.04815513024	352.948314681845
151.2635634350764	-84.03531301948689	-4403.450402221114	453.7906903052293
-319.3341894740502	-33.61412520779476	-4168.151525766551	907.5813806104586
-689.0895667597925	-134.45650083117903	-4117.730337954858	1546.249759558559
-1075.6520066494322	-285.72006426625546	-3764.7820232730137	823.5460675909717
-1327.7579457078932	-369.7553772857424	-521.0189407208188	-369.7553772857424
-1344.5650083117903	-403.36950249353714	2437.02407756512	-958.0025684221506
-857.1601927987663	-184.8776886428712	2924.428893078144	-756.3178171753822
-235.29887645456336	67.22825041558951	2605.0947036040943	-756.3178171753822
336.14125207794757	235.29887645456336	2235.3393263183516	-638.6683789481004
873.9672554026638	403.36950249353714	840.3531301948691	-554.6330659286136
1008.4237562338428	420.17656509743455	151.2635634350764	-1176.4943822728167
873.9672554026638	285.72006426625546	-739.5107545714848	-1361.3720709156878
605.0542537403056	67.22825041558951	-2991.657143493734	-1210.1085074806113
184.8776886428712	-84.03531301948689	-1865.5839490326093	-588.2471911364083
-252.1059390584607	-537.8260033247161	3916.0455867080896	823.5460675909717
-789.9319423831769	-890.7743180065611	5832.050723552391	1663.8991977858407
-873.9672554026638	-739.5107545714848	5042.118781169214	722.7036919675874
-655.4754415519978	-369.7553772857424	1563.0568221624562	-134.45650083117903
-184.8776886428712	-184.8776886428712	-1327.7579457078932	-857.1601927987663
84.03531301948689	134.45650083117903	-2521.059390584607	-1815.1627612209172
319.3341894740502	352.948314681845	-3445.4478337989626	-1579.8638847663537
319.3341894740502	285.72006426625546	-2958.043018285939	-621.861316344203
420.17656509743455	319.3341894740502	-4638.749278675677	-285.72006426625546
689.0895667597925	268.91300166235806	-3865.6243988963975	-33.61412520779476
1142.8802570650219	319.3341894740502	-1344.5650083117903	-1126.0731944611243
1058.844944045535	302.5271268701528	-3193.341894740502	-1932.8121994481987
655.4754415519978	218.49181385066595	-386.56243988963973	-2336.181701941736
151.2635634350764	-84.03531301948689	6369.876726877108	1142.8802570650219
-605.0542537403056	-33.61412520779476	8403.53130194869	3832.0102736886024
-1361.3720709156878	-487.404815513024	6033.735474799159	6252.227288649825
-1932.8121994481987	-1126.0731944611243	2554.6735157924018	6806.860354578439
-2067.2687002793778	-1327.7579457078932	1176.4943822728167	4033.6950249353713
-1647.0921351819434	-857.1601927987663	268.91300166235806	537.8260033247161
-857.1601927987663	-386.56243988963973	-857.1601927987663	-453.7906903052293
-235.29887645456336	-184.8776886428712	-2117.68988809107	-655.4754415519978
218.49181385066595	-117.64943822728168	-3126.1136443249125	-924.3884432143559
605.0542537403056	67.22825041558951	-3764.7820232730137	-1126.0731944611243
924.3884432143559	252.1059390584607	-2352.9887645456333	-1411.79325872738
1226.9155700845088	336.14125207794757	773.1248797792795	-1647.0921351819434
1428.6003213312774	537.8260033247161	3058.885393909323	-1596.670947370251
1462.214446539072	487.404815513024	3899.238524104192	-1411.79325872738
1210.1085074806113	369.7553772857424	3731.1678980652187	-1495.828571746867
840.3531301948691	201.68475124676857	3310.991332967784	-336.14125207794757
134.45650083117903	420.17656509743455	1882.3910116365068	-201.68475124676857
-638.6683789481004	521.0189407208188	-521.0189407208188	487.404815513024
-1092.4590692533297	168.07062603897378	-285.72006426625546	1042.0378814416376
-1462.214446539072	-336.14125207794757	-806.7390049870743	974.809631026048
-1344.5650083117903	-386.56243988963973	-2487.445265376812	403.36950249353714
-974.809631026048	-168.07062603897378	-1462.214446539072	-184.8776886428712
-705.89662936369	-184.8776886428712	-1294.1438205000984	-184.8776886428712
-436.9836277013319	-84.03531301948689	-285.72006426625546	-554.6330659286136
-235.29887645456336	-336.14125207794757	-1193.301444876714	-487.404815513024
-235.29887645456336	-369.7553772857424	-1042.0378814416376	-352.948314681845
33.61412520779476	-100.84237562338429	-789.9319423831769	-33.61412520779476
319.3341894740502	50.42118781169214	-2437.02407756512	-504.2118781169214
672.2825041558951	134.45650083117903	-3042.078331305426	-453.7906903052293
756.3178171753822	218.49181385066595	-1394.9861961234824	-890.7743180065611
722.7036919675874	302.5271268701528	100.84237562338429	-1075.6520066494322
571.4401285325109	235.29887645456336	-1865.5839490326093	-958.0025684221506
453.7906903052293	0.0	-705.89662936369	-537.8260033247161
285.72006426625546	-184.8776886428712	319.3341894740502	184.8776886428712
84.03531301948689	-84.03531301948689	3008.464206097631	-958.0025684221506
235.29887645456336	50.42118781169214	100.84237562338429	-1916.0051368443012
268.91300166235806	302.5271268701528	1109.2661318572273	-1277.3367578962009
386.56243988963973	268.91300166235806	1747.9345108053276	218.49181385066595
151.2635634350764	252.1059390584607	1058.844944045535	974.809631026048
-100.84237562338429	117.64943822728168	2319.3746393378383	1563.0568221624562
-352.948314681845	50.42118781169214	2117.68988809107	2403.4099523573254
-605.0542537403056	-33.61412520779476	907.5813806104586	1630.2850725780459
-487.404815513024	-84.03531301948689	369.7553772857424	974.809631026048
-369.7553772857424	-84.03531301948689	537.8260033247161	436.9836277013319
-151.2635634350764	16.80706260389738	-386.56243988963973	-218.49181385066595
-50.42118781169214	-16.80706260389738	-1277.3367578962009	-470.5977529091267
151.2635634350764	-16.80706260389738	-3294.1842703638868	-218.49181385066595
285.72006426625546	-16.80706260389738	-3865.6243988963975	16.80706260389738
302.5271268701528	-50.42118781169214	-4000.0808997275767	-134.45650083117903
285.72006426625546	67.22825041558951	-1983.2333872598908	-218.49181385066595
252.1059390584607	-134.45650083117903	1378.179133519585	-16.80706260389738
252.1059390584607	-50.42118781169214	-504.2118781169214	-319.3341894740502
319.3341894740502	-84.03531301948689	-571.4401285325109	-403.36950249353714
117.64943822728168	-218.49181385066595	756.3178171753822	-302.5271268701528
-117.64943822728168	-319.3341894740502	2571.4805783962993	0.0
-235.29887645456336	-252.1059390584607	2100.8828254871723	521.0189407208188
-285.72006426625546	-403.36950249353714	1848.7768864287118	857.1601927987663
-403.36950249353714	-453.7906903052293	1260.5296952923036	168.07062603897378
-252.1059390584607	-336.14125207794757	369.7553772857424	-386.56243988963973
-184.8776886428712	-386.56243988963973	117.64943822728168	-100.84237562338429
-285.72006426625546	-235.29887645456336	789.9319423831769	-151.2635634350764
-218.49181385066595	16.80706260389738	2655.5158914157864	-504.2118781169214
-134.45650083117903	201.68475124676857	3832.0102736886024	-504.2118781169214
-50.42118781169214	134.45650083117903	4117.730337954858	-621.861316344203
268.91300166235806	117.64943822728168	1731.12744820143	-117.64943822728168
621.861316344203	252.1059390584607	-352.948314681845	-100.84237562338429
789.9319423831769	403.36950249353714	-1411.79325872738	-655.4754415519978
756.3178171753822	436.9836277013319	-2252.1463889222487	-1210.1085074806113
537.8260033247161	537.8260033247161	-2638.708828811889	-1529.4426969546614
117.64943822728168	252.1059390584607	-4184.958588370448	-1176.4943822728167
-184.8776886428712	-235.29887645456336	-4638.749278675677	773.1248797792795
-605.0542537403056	-605.0542537403056	-1747.9345108053276	2033.6545750715832
-873.9672554026638	-621.861316344203	-2218.5322637144545	1949.619262052096
-890.7743180065611	-521.0189407208188	-1394.9861961234824	1680.7062603897382
-689.0895667597925	-453.7906903052293	-470.5977529091267	857.1601927987663
-605.0542537403056	-252.1059390584607	1008.4237562338428	302.5271268701528
-470.5977529091267	-16.80706260389738	2084.0757628832753	-218.49181385066595
-134.45650083117903	168.07062603897378	1798.3556986170197	-605.0542537403056
84.03531301948689	285.72006426625546	-672.2825041558951	-941.1955058182534
319.3341894740502	386.56243988963973	-1882.3910116365068	-1008.4237562338428
504.2118781169214	436.9836277013319	-2974.8500808898366	-739.5107545714848
504.2118781169214	369.7553772857424	-655.4754415519978	-302.5271268701528
252.1059390584607	117.64943822728168	873.9672554026638	201.68475124676857
50.42118781169214	252.1059390584607	1260.5296952923036	-336.14125207794757
-168.07062603897378	100.84237562338429	3916.0455867080896	-285.72006426625546
-352.948314681845	-33.61412520779476	-1546.249759558559	84.03531301948689
-403.36950249353714	-100.84237562338429	-3495.869021610655	420.17656509743455
-252.1059390584607	-84.03531301948689	-4151.344463162653	50.42118781169214
-100.84237562338429	-285.72006426625546	-2134.4969506949674	218.49181385066595
84.03531301948689	-386.56243988963973	-1344.5650083117903	235.29887645456336
168.07062603897378	-453.7906903052293	1193.301444876714	-235.29887645456336
16.80706260389738	-302.5271268701528	2084.0757628832753	-252.1059390584607
-252.1059390584607	-369.7553772857424	5680.787160117315	890.7743180065611
-386.56243988963973	-319.3341894740502	6588.3685407277735	1008.4237562338428
-336.14125207794757	-151.2635634350764	5378.260033247161	1310.9508831039957
-352.948314681845	-100.84237562338429	5210.189407208189	1462.214446539072
-134.45650083117903	33.61412520779476	3832.0102736886024	151.2635634350764
369.7553772857424	134.45650083117903	2437.02407756512	-386.56243988963973
1042.0378814416376	302.5271268701528	1243.722632688406	-739.5107545714848
1613.4780099741486	537.8260033247161	1176.4943822728167	-773.1248797792795
1714.3203855975325	722.7036919675874	-2840.3935800586573	-756.3178171753822
1142.8802570650219	739.5107545714848	-4924.469342941932	-756.3178171753822
218.49181385066595	168.07062603897378	-3966.4667745197817	722.7036919675874
-756.3178171753822	33.61412520779476	-655.4754415519978	739.5107545714848
-1243.722632688406	-16.80706260389738	823.5460675909717	1058.844944045535
-1361.3720709156878	-369.7553772857424	-3764.7820232730137	1949.619262052096
-1428.6003213312774	-705.89662936369	-6218.613163442031	168.07062603897378
-1378.179133519585	-655.4754415519978	-5159.768219396496	-1344.5650083117903
-958.0025684221506	-504.2118781169214	-3563.0972720262444	-1630.2850725780459
-151.2635634350764	-302.5271268701528	-2991.657143493734	-722.7036919675874
184.8776886428712	-168.07062603897378	-1579.8638847663537	117.64943822728168
403.36950249353714	-84.03531301948689	1378.179133519585	-151.2635634350764
487.404815513024	-50.42118781169214	2033.6545750715832	0.0
420.17656509743455	184.8776886428712	3546.2902094223473	-184.8776886428712
268.91300166235806	252.1059390584607	4554.71396565619	-100.84237562338429
0.0	100.84237562338429	3596.7113972340394	-151.2635634350764
-84.03531301948689	100.84237562338429	1596.670947370251	-50.42118781169214
-201.68475124676857	33.61412520779476	-924.3884432143559	-252.1059390584607
-235.29887645456336	67.22825041558951	-1983.2333872598908	-386.56243988963973
-84.03531301948689	100.84237562338429	-3697.5537728574236	-588.2471911364083
117.64943822728168	201.68475124676857	-3378.219583383374	-655.4754415519978
369.7553772857424	235.29887645456336	-1663.8991977858407	-974.809631026048
554.6330659286136	218.49181385066595	-2554.6735157924018	-1008.4237562338428
521.0189407208188	336.14125207794757	-1747.9345108053276	-1042.0378814416376
285.72006426625546	201.68475124676857	1277.3367578962009	-705.89662936369
33.61412520779476	-218.49181385066595	6184.999038234236	689.0895667597925
-201.68475124676857	-386.56243988963973	5008.504655961419	1479.0215091429695
-285.72006426625546	-521.0189407208188	1613.4780099741486	1798.3556986170197
-352.948314681845	-588.2471911364083	1109.2661318572273	1226.9155700845088
-268.91300166235806	-588.2471911364083	1394.9861961234824	403.36950249353714
-235.29887645456336	-319.3341894740502	2672.3229540196835	-420.17656509743455
100.84237562338429	-151.2635634350764	2756.35826703917	-655.4754415519978
319.3341894740502	84.03531301948689	1075.6520066494322	-1075.6520066494322
386.56243988963973	117.64943822728168	-1109.2661318572273	-1310.9508831039957
336.14125207794757	134.45650083117903	-2336.181701941736	-1310.9508831039957
252.1059390584607	134.45650083117903	-2100.8828254871723	-705.89662936369
168.07062603897378	168.07062603897378	-1529.4426969546614	134.45650083117903
67.22825041558951	302.5271268701528	-672.2825041558951	1159.6873196689191
-218.49181385066595	33.61412520779476	-1815.1627612209172	1916.0051368443012
-336.14125207794757	-16.80706260389738	-907.5813806104586	1579.8638847663537
-134.45650083117903	151.2635634350764	-201.68475124676857	50.42118781169214
369.7553772857424	369.7553772857424	-1058.844944045535	-1613.4780099741486
705.89662936369	521.0189407208188	-823.5460675909717	-1949.619262052096
722.7036919675874	453.7906903052293	-789.9319423831769	-1747.9345108053276
621.861316344203	235.29887645456336	-941.1955058182534	-958.0025684221506
319.3341894740502	50.42118781169214	-1042.0378814416376	504.2118781169214
-184.8776886428712	-218.49181385066595	974.809631026048	2252.1463889222487
-403.36950249353714	-403.36950249353714	991.6166936299454	1596.670947370251
-386.56243988963973	-453.7906903052293	-655.4754415519978	420.17656509743455
-218.49181385066595	-436.9836277013319	-1327.7579457078932	420.17656509743455
168.07062603897378	-285.72006426625546	-655.4754415519978	1109.2661318572273
352.948314681845	-369.7553772857424	50.42118781169214	1378.179133519585
252.1059390584607	-168.07062603897378	2352.9887645456333	-16.80706260389738
-50.42118781169214	-50.42118781169214	5613.558909701725	-487.404815513024
-319.3341894740502	-117.64943822728168	6790.053291974542	-84.03531301948689
-453.7906903052293	50.42118781169214	5848.857786156288	117.64943822728168
-621.861316344203	33.61412520779476	2958.043018285939	336.14125207794757
-857.1601927987663	-67.22825041558951	2067.2687002793778	16.80706260389738
-672.2825041558951	67.22825041558951	-67.22825041558951	-705.89662936369
-134.45650083117903	100.84237562338429	-3344.605458175579	-924.3884432143559
16.80706260389738	151.2635634350764	-5445.488283662751	-1630.2850725780459
-168.07062603897378	84.03531301948689	-5142.961156792599	-1361.3720709156878
-184.8776886428712	-33.61412520779476	-5327.83884543547	0.0
-369.7553772857424	-67.22825041558951	-5647.17303490952	873.9672554026638
-218.49181385066595	-184.8776886428712	-3680.7467102535265	873.9672554026638
-84.03531301948689	-285.72006426625546	-3058.885393909323	1109.2661318572273
33.61412520779476	-168.07062603897378	-2184.9181385066595	184.8776886428712
201.68475124676857	-67.22825041558951	-2218.5322637144545	-1294.1438205000984
184.8776886428712	67.22825041558951	67.22825041558951	-1680.7062603897382
218.49181385066595	-84.03531301948689	3310.991332967784	-302.5271268701528
67.22825041558951	-134.45650083117903	7798.477048208384	252.1059390584607
-201.68475124676857	-184.8776886428712	10991.818942948887	873.9672554026638
-352.948314681845	0.0	6201.806100838134	907.5813806104586
-403.36950249353714	-50.42118781169214	2453.8311401690175	487.404815513024
-352.948314681845	-84.03531301948689	-453.7906903052293	504.2118781169214
-151.2635634350764	0.0	-1697.5133229936355	605.0542537403056
-84.03531301948689	84.03531301948689	-2605.0947036040943	235.29887645456336
-84.03531301948689	201.68475124676857	-3327.7983955716813	-67.22825041558951
184.8776886428712	420.17656509743455	-2184.9181385066595	-1092.4590692533297
420.17656509743455	319.3341894740502	-1428.6003213312774	-1495.828571746867
521.0189407208188	302.5271268701528	-1176.4943822728167	-2016.8475124676856
773.1248797792795	403.36950249353714	-2033.6545750715832	-1479.0215091429695
806.7390049870743	302.5271268701528	-2033.6545750715832	-504.2118781169214
453.7906903052293	-100.84237562338429	369.7553772857424	1193.301444876714
0.0	-151.2635634350764	-537.8260033247161	1747.9345108053276
-67.22825041558951	-235.29887645456336	-1714.3203855975325	1193.301444876714
151.2635634350764	-352.948314681845	-2941.2359556820415	1445.4073839351747
352.948314681845	-588.2471911364083	-3445.4478337989626	1445.4073839351747
336.14125207794757	-436.9836277013319	-3327.7983955716813	605.0542537403056
84.03531301948689	-302.5271268701528	-2722.7441418313756	-605.0542537403056
-201.68475124676857	-184.8776886428712	1613.4780099741486	-420.17656509743455
-487.404815513024	-201.68475124676857	8302.688926325305	-672.2825041558951
-588.2471911364083	-168.07062603897378	3731.1678980652187	-974.809631026048
-420.17656509743455	-67.22825041558951	-1344.5650083117903	-924.3884432143559
184.8776886428712	184.8776886428712	-3731.1678980652187	-571.4401285325109
521.0189407208188	201.68475124676857	-5260.61059501988	689.0895667597925
369.7553772857424	100.84237562338429	-4823.626967318549	1596.670947370251
-117.64943822728168	50.42118781169214	-1260.5296952923036	1159.6873196689191
-487.404815513024	-50.42118781169214	3479.0619590067577	924.3884432143559
-352.948314681845	235.29887645456336	4016.8879623314742	621.861316344203
-235.29887645456336	151.2635634350764	2016.8475124676856	-386.56243988963973
-588.2471911364083	-33.61412520779476	2521.059390584607	-1210.1085074806113
-840.3531301948691	16.80706260389738	4537.906903052292	-1680.7062603897382
-873.9672554026638	-33.61412520779476	5563.137721890033	-319.3341894740502
-638.6683789481004	-50.42118781169214	3058.885393909323	890.7743180065611
-739.5107545714848	-436.9836277013319	1563.0568221624562	1647.0921351819434
-789.9319423831769	-672.2825041558951	-1142.8802570650219	1092.4590692533297
-554.6330659286136	-571.4401285325109	-1243.722632688406	-33.61412520779476
-168.07062603897378	-403.36950249353714	-739.5107545714848	-789.9319423831769
84.03531301948689	-302.5271268701528	117.64943822728168	-1058.844944045535
336.14125207794757	-168.07062603897378	1092.4590692533297	-1243.722632688406
537.8260033247161	67.22825041558951	1075.6520066494322	-1596.670947370251
806.7390049870743	235.29887645456336	1142.8802570650219	-1899.198074240404
958.0025684221506	386.56243988963973	1226.9155700845088	-1831.9698238248145
739.5107545714848	420.17656509743455	924.3884432143559	-1411.79325872738
453.7906903052293	252.1059390584607	-1462.214446539072	-50.42118781169214
235.29887645456336	285.72006426625546	-840.3531301948691	974.809631026048
50.42118781169214	621.861316344203	-1865.5839490326093	1361.3720709156878
-84.03531301948689	436.9836277013319	-1865.5839490326093	1764.7415734092249
-218.49181385066595	50.42118781169214	-1529.4426969546614	1563.0568221624562
-50.42118781169214	100.84237562338429	-1815.1627612209172	-655.4754415519978
252.1059390584607	285.72006426625546	-2756.35826703917	-1663.8991977858407
537.8260033247161	436.9836277013319	-3058.885393909323	-2000.0404498637884
924.3884432143559	487.404815513024	-2134.4969506949674	-2487.445265376812
1142.8802570650219	470.5977529091267	-218.49181385066595	-1378.179133519585
1294.1438205000984	319.3341894740502	857.1601927987663	1210.1085074806113
991.6166936299454	-168.07062603897378	2874.007705266452	2184.9181385066595
386.56243988963973	-504.2118781169214	4823.626967318549	2252.1463889222487
-470.5977529091267	-571.4401285325109	4924.469342941932	2201.725201110557
-1092.4590692533297	-840.3531301948691	5193.38234460429	2874.007705266452
-1327.7579457078932	-638.6683789481004	-1647.0921351819434	2252.1463889222487
-1445.4073839351747	-621.861316344203	-3714.360835461321	1512.6356343507643
-1445.4073839351747	-638.6683789481004	-3916.0455867080896	403.36950249353714
-1176.4943822728167	-571.4401285325109	-3630.3255224418344	-689.0895667597925
-605.0542537403056	-403.36950249353714	-3058.885393909323	-638.6683789481004
-134.45650083117903	-235.29887645456336	-2840.3935800586573	-1075.6520066494322
84.03531301948689	-16.80706260389738	-3210.1489573443996	-1378.179133519585
117.64943822728168	184.8776886428712	-3294.1842703638868	-1394.9861961234824
336.14125207794757	436.9836277013319	-2386.602889753428	-1176.4943822728167
369.7553772857424	470.5977529091267	-2050.4616376754807	-773.1248797792795
285.72006426625546	352.948314681845	1008.4237562338428	-168.07062603897378
168.07062603897378	369.7553772857424	4907.662280338035	235.29887645456336
151.2635634350764	201.68475124676857	5680.787160117315	16.80706260389738
117.64943822728168	151.2635634350764	2571.4805783962993	-285.72006426625546
117.64943822728168	151.2635634350764	504.2118781169214	-689.0895667597925
134.45650083117903	-168.07062603897378	1916.0051368443012	-336.14125207794757
201.68475124676857	-235.29887645456336	1932.8121994481987	168.07062603897378
285.72006426625546	16.80706260389738	-319.3341894740502	302.5271268701528
369.7553772857424	84.03531301948689	-50.42118781169214	184.8776886428712
201.68475124676857	-218.49181385066595	2369.795827149531	436.9836277013319
-33.61412520779476	-403.36950249353714	1714.3203855975325	403.36950249353714
-268.91300166235806	-453.7906903052293	-789.9319423831769	369.7553772857424
-521.0189407208188	-605.0542537403056	-1176.4943822728167	100.84237562338429
-588.2471911364083	-621.861316344203	-302.5271268701528	-504.2118781169214
-336.14125207794757	-436.9836277013319	941.1955058182534	-403.36950249353714
-67.22825041558951	-218.49181385066595	-470.5977529091267	-168.07062603897378
16.80706260389738	-84.03531301948689	1210.1085074806113	-386.56243988963973
84.03531301948689	0.0	1932.8121994481987	-521.0189407208188
117.64943822728168	117.64943822728168	1344.5650083117903	-722.7036919675874
369.7553772857424	369.7553772857424	403.36950249353714	-689.0895667597925
470.5977529091267	554.6330659286136	-823.5460675909717	-789.9319423831769
487.404815513024	655.4754415519978	-2789.972392246965	-1159.6873196689191
571.4401285325109	739.5107545714848	-3899.238524104192	-1764.7415734092249
470.5977529091267	621.861316344203	-2302.567576733941	-2033.6545750715832
268.91300166235806	487.404815513024	-436.9836277013319	-1916.0051368443012
16.80706260389738	420.17656509743455	403.36950249353714	-1025.2308188377403
-100.84237562338429	168.07062603897378	84.03531301948689	0.0
-168.07062603897378	67.22825041558951	-453.7906903052293	1546.249759558559
-168.07062603897378	-16.80706260389738	-2605.0947036040943	2621.9017662079914
33.61412520779476	-302.5271268701528	-1394.9861961234824	2722.7441418313756
117.64943822728168	-521.0189407208188	285.72006426625546	1226.9155700845088
487.404815513024	-285.72006426625546	420.17656509743455	-184.8776886428712
352.948314681845	33.61412520779476	504.2118781169214	-1058.844944045535
151.2635634350764	16.80706260389738	2773.1653296430677	-369.7553772857424
-201.68475124676857	-319.3341894740502	4638.749278675677	1445.4073839351747
-672.2825041558951	-218.49181385066595	2016.8475124676856	2554.6735157924018
-991.6166936299454	-336.14125207794757	-655.4754415519978	3983.273837123679
-1193.301444876714	-689.0895667597925	-1983.2333872598908	3142.92070692881
-1008.4237562338428	-420.17656509743455	-1243.722632688406	840.3531301948691
-823.5460675909717	-201.68475124676857	436.9836277013319	-907.5813806104586
-201.68475124676857	201.68475124676857	403.36950249353714	-1058.844944045535
319.3341894740502	336.14125207794757	974.809631026048	-1042.0378814416376
521.0189407208188	268.91300166235806	100.84237562338429	-1042.0378814416376
605.0542537403056	100.84237562338429	-1462.214446539072	-991.6166936299454
655.4754415519978	-67.22825041558951	-3916.0455867080896	-1176.4943822728167
537.8260033247161	-218.49181385066595	-4235.37977618214	-806.7390049870743
168.07062603897378	-403.36950249353714	-3596.7113972340394	-369.7553772857424
-184.8776886428712	-235.29887645456336	-235.29887645456336	-67.22825041558951
-151.2635634350764	-117.64943822728168	2470.638202772915	1126.0731944611243
-33.61412520779476	-16.80706260389738	3378.219583383374	1462.214446539072
-201.68475124676857	-50.42118781169214	3479.0619590067577	1310.9508831039957
-436.9836277013319	-571.4401285325109	6117.770787818646	1042.0378814416376
-638.6683789481004	-487.404815513024	5277.417657623778	-252.1059390584607
-655.4754415519978	-352.948314681845	2874.007705266452	-789.9319423831769
-554.6330659286136	-285.72006426625546	-319.3341894740502	-420.17656509743455
-453.7906903052293	-84.03531301948689	-3512.6760842145522	-352.948314681845
-588.2471911364083	33.61412520779476	-5848.857786156288	-1327.7579457078932
-352.948314681845	319.3341894740502	-7025.3521684291045	-1529.4426969546614
235.29887645456336	436.9836277013319	-7680.827609981103	-1294.1438205000984
638.6683789481004	453.7906903052293	-6386.683789481004	-1142.8802570650219
806.7390049870743	302.5271268701528	-4268.993901389935	-487.404815513024
638.6683789481004	117.64943822728168	453.7906903052293	-117.64943822728168
218.49181385066595	117.64943822728168	5311.031782831573	369.7553772857424
-100.84237562338429	302.5271268701528	3932.852649311987	605.0542537403056
-386.56243988963973	-33.61412520779476	3277.3772077599892	1344.5650083117903
-336.14125207794757	-235.29887645456336	3680.7467102535265	689.0895667597925
-235.29887645456336	-184.8776886428712	3310.991332967784	-504.2118781169214
-168.07062603897378	-168.07062603897378	3126.1136443249125	-1058.844944045535
151.2635634350764	-100.84237562338429	2521.059390584607	-1008.4237562338428
302.5271268701528	-33.61412520779476	1210.1085074806113	-1226.9155700845088
268.91300166235806	50.42118781169214	-33.61412520779476	-1058.844944045535
168.07062603897378	-33.61412520779476	-722.7036919675874	-403.36950249353714
16.80706260389738	-16.80706260389738	-991.6166936299454	151.2635634350764
0.0	16.80706260389738	-840.3531301948691	336.14125207794757
-84.03531301948689	50.42118781169214	-1260.5296952923036	571.4401285325109
-117.64943822728168	-50.42118781169214	588.2471911364083	655.4754415519978
-84.03531301948689	0.0	537.8260033247161	84.03531301948689
84.03531301948689	134.45650083117903	386.56243988963973	-285.72006426625546
252.1059390584607	168.07062603897378	924.3884432143559	-67.22825041558951
336.14125207794757	218.49181385066595	-100.84237562338429	33.61412520779476
487.404815513024	268.91300166235806	-1075.6520066494322	-67.22825041558951
672.2825041558951	268.91300166235806	-2000.0404498637884	-453.7906903052293
638.6683789481004	67.22825041558951	-1142.8802570650219	-672.2825041558951
369.7553772857424	-67.22825041558951	1378.179133519585	-235.29887645456336
184.8776886428712	-235.29887645456336	3327.7983955716813	403.36950249353714
-50.42118781169214	-50.42118781169214	756.3178171753822	1092.4590692533297
-235.29887645456336	134.45650083117903	117.64943822728168	1260.5296952923036
-235.29887645456336	33.61412520779476	521.0189407208188	1126.0731944611243
-386.56243988963973	-285.72006426625546	-336.14125207794757	991.6166936299454
-268.91300166235806	-285.72006426625546	-1260.5296952923036	184.8776886428712
-33.61412520779476	-218.49181385066595	-941.1955058182534	235.29887645456336
-50.42118781169214	-252.1059390584607	-1563.0568221624562	470.5977529091267
-151.2635634350764	-235.29887645456336	-2352.9887645456333	470.5977529091267
-285.72006426625546	-168.07062603897378	-2504.2523279807097	-218.49181385066595
-201.68475124676857	0.0	-1176.4943822728167	-1361.3720709156878
-67.22825041558951	84.03531301948689	-285.72006426625546	-1294.1438205000984
67.22825041558951	184.8776886428712	201.68475124676857	-521.0189407208188
50.42118781169214	184.8776886428712	-168.07062603897378	-16.80706260389738
-33.61412520779476	84.03531301948689	1411.79325872738	369.7553772857424
-168.07062603897378	-33.61412520779476	3075.6924565132203	1008.4237562338428
-336.14125207794757	-117.64943822728168	2403.4099523573254	806.7390049870743
-386.56243988963973	-33.61412520779476	1294.1438205000984	184.8776886428712
-235.29887645456336	16.80706260389738	336.14125207794757	-168.07062603897378
-84.03531301948689	-67.22825041558951	-268.91300166235806	50.42118781169214
-117.64943822728168	-168.07062603897378	-2352.9887645456333	-235.29887645456336
-184.8776886428712	-67.22825041558951	-4016.8879623314742	-890.7743180065611
-100.84237562338429	-33.61412520779476	-3512.6760842145522	-1109.2661318572273
50.42118781169214	-50.42118781169214	-2991.657143493734	-789.9319423831769
218.49181385066595	-201.68475124676857	-2050.4616376754807	-285.72006426625546
336.14125207794757	-218.49181385066595	-974.809631026048	672.2825041558951
336.14125207794757	-16.80706260389738	1193.301444876714	739.5107545714848
201.68475124676857	-67.22825041558951	3832.0102736886024	722.7036919675874
67.22825041558951	-84.03531301948689	2352.9887645456333	436.9836277013319
100.84237562338429	-117.64943822728168	823.5460675909717	-168.07062603897378
16.80706260389738	-84.03531301948689	773.1248797792795	-352.948314681845
-84.03531301948689	33.61412520779476	571.4401285325109	-621.861316344203
-201.68475124676857	50.42118781169214	1126.0731944611243	-605.0542537403056
-285.72006426625546	67.22825041558951	1445.4073839351747	-336.14125207794757
-201.68475124676857	184.8776886428712	1932.8121994481987	134.45650083117903
-218.49181385066595	50.42118781169214	1596.670947370251	504.2118781169214
-218.49181385066595	134.45650083117903	1159.6873196689191	-117.64943822728168
-134.45650083117903	235.29887645456336	924.3884432143559	-857.1601927987663
117.64943822728168	386.56243988963973	-285.72006426625546	-1546.249759558559
285.72006426625546	369.7553772857424	-1479.0215091429695	-1378.179133519585
352.948314681845	218.49181385066595	-2386.602889753428	-873.9672554026638
336.14125207794757	-84.03531301948689	-2302.567576733941	-67.22825041558951
252.1059390584607	-151.2635634350764	-857.1601927987663	117.64943822728168
302.5271268701528	-268.91300166235806	722.7036919675874	857.1601927987663
218.49181385066595	-453.7906903052293	33.61412520779476	756.3178171753822
184.8776886428712	-336.14125207794757	-739.5107545714848	-84.03531301948689
134.45650083117903	-268.91300166235806	991.6166936299454	-235.29887645456336
235.29887645456336	-201.68475124676857	2201.725201110557	420.17656509743455
235.29887645456336	84.03531301948689	1042.0378814416376	252.1059390584607
336.14125207794757	134.45650083117903	-184.8776886428712	-705.89662936369
537.8260033247161	151.2635634350764	369.7553772857424	-672.2825041558951
453.7906903052293	151.2635634350764	-369.7553772857424	-184.8776886428712
235.29887645456336	50.42118781169214	-1596.670947370251	537.8260033247161
-285.72006426625546	-67.22825041558951	-1126.0731944611243	974.809631026048
-739.5107545714848	-117.64943822728168	-2016.8475124676856	1075.6520066494322
-1210.1085074806113	-67.22825041558951	-722.7036919675874	2453.8311401690175
-1411.79325872738	-218.49181385066595	1781.5486360131222	2840.3935800586573
-1378.179133519585	-235.29887645456336	2218.5322637144545	1495.828571746867
-941.1955058182534	-168.07062603897378	1193.301444876714	436.9836277013319
-571.4401285325109	-151.2635634350764	336.14125207794757	-117.64943822728168
-336.14125207794757	-100.84237562338429	-621.861316344203	-352.948314681845
-235.29887645456336	-134.45650083117903	-1630.2850725780459	-537.8260033247161
100.84237562338429	-84.03531301948689	-2504.2523279807097	-588.2471911364083
386.56243988963973	-33.61412520779476	-1579.8638847663537	-605.0542537403056
521.0189407208188	67.22825041558951	-420.17656509743455	-806.7390049870743
571.4401285325109	16.80706260389738	1243.722632688406	-1109.2661318572273
554.6330659286136	0.0	2504.2523279807097	-1512.6356343507643
386.56243988963973	100.84237562338429	1731.12744820143	-1025.2308188377403
352.948314681845	67.22825041558951	-403.36950249353714	-470.5977529091267
386.56243988963973	134.45650083117903	-1479.0215091429695	-537.8260033247161
352.948314681845	-50.42118781169214	-1210.1085074806113	-554.6330659286136
453.7906903052293	84.03531301948689	-2016.8475124676856	-436.9836277013319
504.2118781169214	218.49181385066595	-1058.844944045535	-1109.2661318572273
537.8260033247161	117.64943822728168	2739.5512044352727	-823.5460675909717
319.3341894740502	50.42118781169214	1596.670947370251	319.3341894740502
-33.61412520779476	151.2635634350764	823.5460675909717	1126.0731944611243
-436.9836277013319	67.22825041558951	-2033.6545750715832	2218.5322637144545
-890.7743180065611	-285.72006426625546	-3327.7983955716813	2437.02407756512
-1092.4590692533297	-386.56243988963973	-1647.0921351819434	1512.6356343507643
-1193.301444876714	-268.91300166235806	-1479.0215091429695	151.2635634350764
-806.7390049870743	-134.45650083117903	-1394.9861961234824	100.84237562338429
-470.5977529091267	-168.07062603897378	-1159.6873196689191	-117.64943822728168
-218.49181385066595	-117.64943822728168	-773.1248797792795	-453.7906903052293
100.84237562338429	-33.61412520779476	-722.7036919675874	-504.2118781169214
436.9836277013319	33.61412520779476	-873.9672554026638	-436.9836277013319
571.4401285325109	67.22825041558951	117.64943822728168	-773.1248797792795
705.89662936369	16.80706260389738	33.61412520779476	-907.5813806104586
705.89662936369	0.0	151.2635634350764	-1075.6520066494322
537.8260033247161	-50.42118781169214	3142.92070692881	-1109.2661318572273
319.3341894740502	-352.948314681845	5865.664848760185	-638.6683789481004
-184.8776886428712	-638.6683789481004	5411.874158454956	-84.03531301948689
-386.56243988963973	-100.84237562338429	2857.200642662555	-554.6330659286136
-218.49181385066595	302.5271268701528	16.80706260389738	-1428.6003213312774
285.72006426625546	470.5977529091267	-1798.3556986170197	-1613.4780099741486
453.7906903052293	504.2118781169214	-2134.4969506949674	-2504.2523279807097
336.14125207794757	302.5271268701528	67.22825041558951	-1445.4073839351747
268.91300166235806	67.22825041558951	3210.1489573443996	1159.6873196689191
168.07062603897378	-33.61412520779476	2252.1463889222487	2941.2359556820415
-100.84237562338429	-84.03531301948689	504.2118781169214	3563.0972720262444
-403.36950249353714	-235.29887645456336	0.0	2739.5512044352727
-588.2471911364083	-201.68475124676857	-67.22825041558951	672.2825041558951
-504.2118781169214	-67.22825041558951	-1176.4943822728167	-252.1059390584607
-184.8776886428712	-67.22825041558951	-773.1248797792795	-352.948314681845
-168.07062603897378	-252.1059390584607	-201.68475124676857	-252.1059390584607
-151.2635634350764	-285.72006426625546	-352.948314681845	201.68475124676857
-218.49181385066595	-336.14125207794757	554.6330659286136	1210.1085074806113
-252.1059390584607	-369.7553772857424	1546.249759558559	1495.828571746867
-268.91300166235806	-386.56243988963973	840.3531301948691	1176.4943822728167
-201.68475124676857	-302.5271268701528	184.8776886428712	-235.29887645456336
100.84237562338429	134.45650083117903	-1579.8638847663537	-1159.6873196689191
386.56243988963973	302.5271268701528	-1428.6003213312774	-857.1601927987663
605.0542537403056	302.5271268701528	-1428.6003213312774	-638.6683789481004
521.0189407208188	302.5271268701528	-2369.795827149531	-588.2471911364083
252.1059390584607	386.56243988963973	-3092.499519117118	-420.17656509743455
-100.84237562338429	420.17656509743455	-1932.8121994481987	-621.861316344203
-151.2635634350764	184.8776886428712	-184.8776886428712	-235.29887645456336
-285.72006426625546	-33.61412520779476	-3260.5701451560917	-924.3884432143559
-84.03531301948689	100.84237562338429	-3613.518459837937	-1916.0051368443012
319.3341894740502	151.2635634350764	-4033.6950249353713	-2184.9181385066595
689.0895667597925	268.91300166235806	-3008.464206097631	-1327.7579457078932
773.1248797792795	386.56243988963973	-823.5460675909717	-621.861316344203
420.17656509743455	302.5271268701528	521.0189407208188	252.1059390584607
-67.22825041558951	201.68475124676857	571.4401285325109	1378.179133519585
-453.7906903052293	-151.2635634350764	3445.4478337989626	2437.02407756512
-789.9319423831769	-537.8260033247161	6420.297914688799	2537.8664531885042
-840.3531301948691	-773.1248797792795	5748.015410532904	2285.7605141300437
-739.5107545714848	-773.1248797792795	3445.4478337989626	1378.179133519585
-554.6330659286136	-739.5107545714848	2016.8475124676856	420.17656509743455
-436.9836277013319	-571.4401285325109	1344.5650083117903	-302.5271268701528
-252.1059390584607	-285.72006426625546	1865.5839490326093	-571.4401285325109
-84.03531301948689	-151.2635634350764	1731.12744820143	-420.17656509743455
0.0	-134.45650083117903	504.2118781169214	218.49181385066595
117.64943822728168	-16.80706260389738	-1394.9861961234824	67.22825041558951
184.8776886428712	151.2635634350764	-1714.3203855975325	-403.36950249353714
285.72006426625546	302.5271268701528	-1899.198074240404	-1210.1085074806113
268.91300166235806	336.14125207794757	-3075.6924565132203	-1512.6356343507643
218.49181385066595	285.72006426625546	-1815.1627612209172	-1916.0051368443012
100.84237562338429	336.14125207794757	-1109.2661318572273	-1546.249759558559
-84.03531301948689	470.5977529091267	-1176.4943822728167	-840.3531301948691
-168.07062603897378	218.49181385066595	-436.9836277013319	235.29887645456336
-117.64943822728168	-84.03531301948689	1327.7579457078932	924.3884432143559
16.80706260389738	-218.49181385066595	789.9319423831769	1462.214446539072
201.68475124676857	-218.49181385066595	403.36950249353714	1546.249759558559
252.1059390584607	-201.68475124676857	-168.07062603897378	705.89662936369
-50.42118781169214	-168.07062603897378	1008.4237562338428	84.03531301948689
-201.68475124676857	-235.29887645456336	2016.8475124676856	268.91300166235806
-268.91300166235806	-218.49181385066595	722.7036919675874	-33.61412520779476
-268.91300166235806	33.61412520779476	-117.64943822728168	-336.14125207794757
-352.948314681845	-16.80706260389738	436.9836277013319	-605.0542537403056
-369.7553772857424	-168.07062603897378	134.45650083117903	-789.9319423831769
-285.72006426625546	-302.5271268701528	-134.45650083117903	-386.56243988963973
50.42118781169214	-50.42118781169214	554.6330659286136	-16.80706260389738
151.2635634350764	117.64943822728168	1445.4073839351747	67.22825041558951
184.8776886428712	134.45650083117903	1529.4426969546614	-352.948314681845
201.68475124676857	201.68475124676857	1109.2661318572273	-840.3531301948691
218.49181385066595	252.1059390584607	100.84237562338429	-672.2825041558951
201.68475124676857	319.3341894740502	-890.7743180065611	-319.3341894740502
134.45650083117903	336.14125207794757	-1848.7768864287118	33.61412520779476
117.64943822728168	268.91300166235806	-2252.1463889222487	470.5977529091267
151.2635634350764	168.07062603897378	-2874.007705266452	420.17656509743455
302.5271268701528	33.61412520779476	-3445.4478337989626	201.68475124676857
436.9836277013319	-151.2635634350764	-3327.7983955716813	184.8776886428712
655.4754415519978	-184.8776886428712	-2773.1653296430677	-302.5271268701528
672.2825041558951	-168.07062603897378	-1462.214446539072	-1042.0378814416376
588.2471911364083	-218.49181385066595	-1042.0378814416376	-1529.4426969546614
302.5271268701528	-352.948314681845	1092.4590692533297	-722.7036919675874
-50.42118781169214	-319.3341894740502	2420.2170149612225	218.49181385066595
-403.36950249353714	-336.14125207794757	1579.8638847663537	1479.0215091429695
-672.2825041558951	-285.72006426625546	621.861316344203	2016.8475124676856
-705.89662936369	-336.14125207794757	184.8776886428712	2000.0404498637884
-823.5460675909717	-201.68475124676857	554.6330659286136	1025.2308188377403
-571.4401285325109	-84.03531301948689	1798.3556986170197	521.0189407208188
-369.7553772857424	67.22825041558951	2504.2523279807097	-50.42118781169214
-134.45650083117903	168.07062603897378	2184.9181385066595	-117.64943822728168
168.07062603897378	235.29887645456336	1243.722632688406	-84.03531301948689
470.5977529091267	369.7553772857424	-907.5813806104586	268.91300166235806
722.7036919675874	470.5977529091267	-3025.2712687015287	268.91300166235806
722.7036919675874	537.8260033247161	-3815.203211084705	-571.4401285325109
605.0542537403056	369.7553772857424	-2722.7441418313756	-1445.4073839351747
302.5271268701528	352.948314681845	-2184.9181385066595	-1781.5486360131222
151.2635634350764	67.22825041558951	-1159.6873196689191	-1479.0215091429695
-268.91300166235806	-134.45650083117903	1058.844944045535	-789.9319423831769
-739.5107545714848	-285.72006426625546	4000.0808997275767	-806.7390049870743
-941.1955058182534	-420.17656509743455	1932.8121994481987	-67.22825041558951
-806.7390049870743	-487.404815513024	1428.6003213312774	655.4754415519978
-571.4401285325109	-655.4754415519978	1428.6003213312774	1764.7415734092249
-571.4401285325109	-689.0895667597925	1361.3720709156878	1647.0921351819434
-420.17656509743455	-554.6330659286136	924.3884432143559	386.56243988963973
-84.03531301948689	-168.07062603897378	588.2471911364083	-672.2825041558951
369.7553772857424	33.61412520779476	1344.5650083117903	-537.8260033247161
571.4401285325109	100.84237562338429	-134.45650083117903	-285.72006426625546
487.404815513024	134.45650083117903	-1193.301444876714	537.8260033247161
201.68475124676857	33.61412520779476	-218.49181385066595	672.2825041558951
0.0	-168.07062603897378	-756.3178171753822	739.5107545714848
-285.72006426625546	-50.42118781169214	-1663.8991977858407	739.5107545714848
-588.2471911364083	201.68475124676857	-1563.0568221624562	-184.8776886428712
-537.8260033247161	268.91300166235806	-84.03531301948689	-873.9672554026638
-352.948314681845	252.1059390584607	-319.3341894740502	-806.7390049870743
-268.91300166235806	302.5271268701528	-873.9672554026638	-655.4754415519978
-117.64943822728168	386.56243988963973	-168.07062603897378	-588.2471911364083
16.80706260389738	201.68475124676857	941.1955058182534	-50.42118781169214
84.03531301948689	-16.80706260389738	1126.0731944611243	268.91300166235806
134.45650083117903	-67.22825041558951	2437.02407756512	50.42118781169214
252.1059390584607	33.61412520779476	3512.6760842145522	-336.14125207794757
369.7553772857424	67.22825041558951	2789.972392246965	-235.29887645456336
319.3341894740502	-134.45650083117903	1630.2850725780459	-268.91300166235806
184.8776886428712	-201.68475124676857	1210.1085074806113	-369.7553772857424
184.8776886428712	-285.72006426625546	1512.6356343507643	-184.8776886428712
168.07062603897378	-403.36950249353714	-100.84237562338429	302.5271268701528
16.80706260389738	-369.7553772857424	-1680.7062603897382	840.3531301948691
-184.8776886428712	-352.948314681845	-2336.181701941736	1075.6520066494322
0.0	-134.45650083117903	-3613.518459837937	84.03531301948689
151.2635634350764	33.61412520779476	-3747.974960669116	-403.36950249353714
252.1059390584607	184.8776886428712	-4336.222151805524	-436.9836277013319
470.5977529091267	302.5271268701528	-4823.626967318549	-605.0542537403056
571.4401285325109	285.72006426625546	-4790.012842110754	-873.9672554026638
655.4754415519978	302.5271268701528	-3479.0619590067577	-571.4401285325109
689.0895667597925	302.5271268701528	100.84237562338429	-1109.2661318572273
436.9836277013319	386.56243988963973	823.5460675909717	-1731.12744820143
285.72006426625546	268.91300166235806	756.3178171753822	-403.36950249353714
16.80706260389738	117.64943822728168	2336.181701941736	672.2825041558951
-369.7553772857424	-151.2635634350764	3697.5537728574236	1630.2850725780459
-705.89662936369	-252.1059390584607	4554.71396565619	1798.3556986170197
-739.5107545714848	-252.1059390584607	3747.974960669116	1764.7415734092249
-554.6330659286136	-235.29887645456336	1966.4263246559935	1462.214446539072
-302.5271268701528	-453.7906903052293	1411.79325872738	890.7743180065611
-319.3341894740502	-487.404815513024	1781.5486360131222	-319.3341894740502
-403.36950249353714	-336.14125207794757	1798.3556986170197	-1176.4943822728167
-184.8776886428712	-134.45650083117903	-1512.6356343507643	-1042.0378814416376
0.0	-117.64943822728168	-1394.9861961234824	-319.3341894740502
16.80706260389738	-117.64943822728168	-369.7553772857424	134.45650083117903
16.80706260389738	-84.03531301948689	-1680.7062603897382	-235.29887645456336
84.03531301948689	-84.03531301948689	-1563.0568221624562	-890.7743180065611
16.80706260389738	-134.45650083117903	-941.1955058182534	-689.0895667597925
0.0	16.80706260389738	605.0542537403056	-605.0542537403056
-67.22825041558951	168.07062603897378	-319.3341894740502	352.948314681845
-151.2635634350764	84.03531301948689	-941.1955058182534	386.56243988963973
16.80706260389738	16.80706260389738	-84.03531301948689	336.14125207794757
67.22825041558951	50.42118781169214	1226.9155700845088	33.61412520779476
-50.42118781169214	100.84237562338429	2437.02407756512	487.404815513024
-84.03531301948689	50.42118781169214	2437.02407756512	773.1248797792795
16.80706260389738	201.68475124676857	1747.9345108053276	588.2471911364083
16.80706260389738	84.03531301948689	-134.45650083117903	504.2118781169214
-67.22825041558951	16.80706260389738	-689.0895667597925	-302.5271268701528
-84.03531301948689	67.22825041558951	-1798.3556986170197	-789.9319423831769
-134.45650083117903	16.80706260389738	-2823.58651745476	-605.0542537403056
-100.84237562338429	-67.22825041558951	-1949.619262052096	-84.03531301948689
-50.42118781169214	-117.64943822728168	-319.3341894740502	-151.2635634350764
16.80706260389738	-235.29887645456336	-50.42118781169214	470.5977529091267
117.64943822728168	-252.1059390584607	-1277.3367578962009	285.72006426625546
184.8776886428712	-134.45650083117903	-1025.2308188377403	-302.5271268701528
285.72006426625546	84.03531301948689	-739.5107545714848	-1142.8802570650219
336.14125207794757	168.07062603897378	336.14125207794757	-806.7390049870743
201.68475124676857	67.22825041558951	1294.1438205000984	-974.809631026048
84.03531301948689	117.64943822728168	1327.7579457078932	-1226.9155700845088
-302.5271268701528	-67.22825041558951	2100.8828254871723	-1042.0378814416376
-470.5977529091267	-134.45650083117903	1714.3203855975325	-84.03531301948689
-470.5977529091267	-117.64943822728168	235.29887645456336	1428.6003213312774
-386.56243988963973	117.64943822728168	-705.89662936369	1781.5486360131222
-336.14125207794757	168.07062603897378	-1058.844944045535	1647.0921351819434
-117.64943822728168	285.72006426625546	-689.0895667597925	958.0025684221506
-50.42118781169214	117.64943822728168	1025.2308188377403	436.9836277013319
-67.22825041558951	50.42118781169214	588.2471911364083	201.68475124676857
84.03531301948689	84.03531301948689	1596.670947370251	16.80706260389738
184.8776886428712	-33.61412520779476	991.6166936299454	235.29887645456336
235.29887645456336	-218.49181385066595	756.3178171753822	655.4754415519978
235.29887645456336	-453.7906903052293	201.68475124676857	352.948314681845
33.61412520779476	-436.9836277013319	-436.9836277013319	-571.4401285325109
16.80706260389738	-319.3341894740502	-1428.6003213312774	-958.0025684221506
100.84237562338429	-100.84237562338429	-1630.2850725780459	-991.6166936299454
100.84237562338429	0.0	-201.68475124676857	-504.2118781169214
-33.61412520779476	0.0	-33.61412520779476	-117.64943822728168
-67.22825041558951	-134.45650083117903	-252.1059390584607	420.17656509743455
-151.2635634350764	-16.80706260389738	-302.5271268701528	50.42118781169214
-50.42118781169214	151.2635634350764	-958.0025684221506	-588.2471911364083
151.2635634350764	268.91300166235806	-1663.8991977858407	-1176.4943822728167
504.2118781169214	436.9836277013319	-3294.1842703638868	-1058.844944045535
605.0542537403056	420.17656509743455	-4016.8879623314742	-218.49181385066595
605.0542537403056	420.17656509743455	-3613.518459837937	-100.84237562338429
420.17656509743455	336.14125207794757	-2302.567576733941	-117.64943822728168
168.07062603897378	0.0	1512.6356343507643	436.9836277013319
-168.07062603897378	-168.07062603897378	1932.8121994481987	890.7743180065611
-470.5977529091267	-436.9836277013319	789.9319423831769	1042.0378814416376
-756.3178171753822	-521.0189407208188	924.3884432143559	655.4754415519978
-789.9319423831769	-386.56243988963973	1411.79325872738	100.84237562338429
-705.89662936369	-134.45650083117903	1714.3203855975325	-453.7906903052293
-184.8776886428712	-235.29887645456336	689.0895667597925	-487.404815513024
117.64943822728168	16.80706260389738	-33.61412520779476	-1445.4073839351747
352.948314681845	184.8776886428712	252.1059390584607	-1411.79325872738
369.7553772857424	168.07062603897378	571.4401285325109	-571.4401285325109
201.68475124676857	-84.03531301948689	1109.2661318572273	537.8260033247161
84.03531301948689	-336.14125207794757	2352.9887645456333	1512.6356343507643
-134.45650083117903	-134.45650083117903	3546.2902094223473	1579.8638847663537
-235.29887645456336	0.0	1159.6873196689191	907.5813806104586
-117.64943822728168	67.22825041558951	-470.5977529091267	-201.68475124676857
33.61412520779476	168.07062603897378	453.7906903052293	-521.0189407208188
67.22825041558951	218.49181385066595	1697.5133229936355	117.64943822728168
184.8776886428712	252.1059390584607	2235.3393263183516	336.14125207794757
0.0	319.3341894740502	1344.5650083117903	285.72006426625546
-33.61412520779476	151.2635634350764	-907.5813806104586	-33.61412520779476
-67.22825041558951	-84.03531301948689	-2067.2687002793778	-235.29887645456336
-67.22825041558951	-117.64943822728168	-3479.0619590067577	218.49181385066595
-84.03531301948689	-84.03531301948689	-4100.923275350961	453.7906903052293
-302.5271268701528	-487.404815513024	-2504.2523279807097	890.7743180065611
-436.9836277013319	-739.5107545714848	420.17656509743455	605.0542537403056
-436.9836277013319	-638.6683789481004	1630.2850725780459	-134.45650083117903
-319.3341894740502	-453.7906903052293	-134.45650083117903	-352.948314681845
-184.8776886428712	-268.91300166235806	-857.1601927987663	-638.6683789481004
33.61412520779476	-50.42118781169214	-369.7553772857424	-991.6166936299454
302.5271268701528	100.84237562338429	1781.5486360131222	-1815.1627612209172
789.9319423831769	302.5271268701528	1932.8121994481987	-1882.3910116365068
1058.844944045535	453.7906903052293	1529.4426969546614	-1445.4073839351747
941.1955058182534	453.7906903052293	2638.708828811889	-1462.214446539072
605.0542537403056	352.948314681845	1747.9345108053276	-722.7036919675874
168.07062603897378	302.5271268701528	1327.7579457078932	1176.4943822728167
-184.8776886428712	218.49181385066595	806.7390049870743	2756.35826703917
-369.7553772857424	33.61412520779476	235.29887645456336	2386.602889753428
-672.2825041558951	-117.64943822728168	1613.4780099741486	991.6166936299454
-873.9672554026638	-117.64943822728168	-621.861316344203	-705.89662936369
-621.861316344203	-67.22825041558951	-672.2825041558951	-1042.0378814416376
-352.948314681845	-100.84237562338429	-840.3531301948691	-521.0189407208188
-285.72006426625546	-134.45650083117903	-2420.2170149612225	-100.84237562338429
-184.8776886428712	-84.03531301948689	-4571.521028260087	-84.03531301948689
50.42118781169214	-67.22825041558951	-5731.208347929007	470.5977529091267
352.948314681845	67.22825041558951	-5193.38234460429	50.42118781169214
420.17656509743455	50.42118781169214	-4033.6950249353713	-470.5977529091267
436.9836277013319	-16.80706260389738	-2268.953451526146	-1378.179133519585
268.91300166235806	-100.84237562338429	588.2471911364083	-1798.3556986170197
100.84237562338429	-151.2635634350764	4319.415089201627	-1462.214446539072
33.61412520779476	-285.72006426625546	4084.1162127470634	-84.03531301948689
-184.8776886428712	-268.91300166235806	1159.6873196689191	1479.0215091429695
-252.1059390584607	-117.64943822728168	-319.3341894740502	2134.4969506949674
-369.7553772857424	-134.45650083117903	453.7906903052293	1714.3203855975325
-285.72006426625546	33.61412520779476	319.3341894740502	1344.5650083117903
-117.64943822728168	100.84237562338429	-302.5271268701528	571.4401285325109
0.0	151.2635634350764	-84.03531301948689	-50.42118781169214
-50.42118781169214	-16.80706260389738	117.64943822728168	-386.56243988963973
0.0	67.22825041558951	-33.61412520779476	-857.1601927987663
84.03531301948689	0.0	1831.9698238248145	-705.89662936369
-50.42118781169214	-50.42118781169214	2352.9887645456333	-218.49181385066595
-67.22825041558951	-50.42118781169214	1445.4073839351747	756.3178171753822
33.61412520779476	84.03531301948689	-50.42118781169214	1008.4237562338428
100.84237562338429	50.42118781169214	386.56243988963973	1075.6520066494322
67.22825041558951	-84.03531301948689	672.2825041558951	588.2471911364083
-151.2635634350764	-268.91300166235806	184.8776886428712	100.84237562338429
-235.29887645456336	-201.68475124676857	554.6330659286136	-386.56243988963973
-84.03531301948689	-67.22825041558951	722.7036919675874	-1512.6356343507643
100.84237562338429	16.80706260389738	470.5977529091267	-1563.0568221624562
168.07062603897378	168.07062603897378	-369.7553772857424	-1899.198074240404
201.68475124676857	168.07062603897378	-974.809631026048	-1663.8991977858407
33.61412520779476	168.07062603897378	-1983.2333872598908	0.0
-84.03531301948689	235.29887645456336	521.0189407208188	1294.1438205000984
-184.8776886428712	-100.84237562338429	1983.2333872598908	2252.1463889222487
-319.3341894740502	-184.8776886428712	1226.9155700845088	1428.6003213312774
-84.03531301948689	-16.80706260389738	-2134.4969506949674	420.17656509743455
117.64943822728168	100.84237562338429	-2168.111075902762	-840.3531301948691
436.9836277013319	252.1059390584607	-1983.2333872598908	-2000.0404498637884
537.8260033247161	201.68475124676857	-1193.301444876714	-2000.0404498637884
302.5271268701528	201.68475124676857	-151.2635634350764	-1512.6356343507643
117.64943822728168	33.61412520779476	1008.4237562338428	184.8776886428712
-33.61412520779476	-16.80706260389738	403.36950249353714	1680.7062603897382
-218.49181385066595	-151.2635634350764	420.17656509743455	2050.4616376754807
-420.17656509743455	-638.6683789481004	4050.502087539269	2067.2687002793778
-537.8260033247161	-554.6330659286136	2352.9887645456333	655.4754415519978
-336.14125207794757	-319.3341894740502	1243.722632688406	-336.14125207794757
-134.45650083117903	-134.45650083117903	1680.7062603897382	-689.0895667597925
50.42118781169214	-84.03531301948689	2168.111075902762	-420.17656509743455
33.61412520779476	-134.45650083117903	1512.6356343507643	-168.07062603897378
33.61412520779476	-33.61412520779476	-1462.214446539072	-789.9319423831769
470.5977529091267	201.68475124676857	-2672.3229540196835	-1344.5650083117903
857.1601927987663	352.948314681845	-3378.219583383374	-1983.2333872598908
873.9672554026638	436.9836277013319	-4806.819904714651	-2386.602889753428
554.6330659286136	336.14125207794757	-6201.806100838134	-2554.6735157924018
84.03531301948689	151.2635634350764	-4403.450402221114	-1512.6356343507643
-302.5271268701528	-134.45650083117903	941.1955058182534	739.5107545714848
-571.4401285325109	-588.2471911364083	2588.287641000197	3848.8173362925
-420.17656509743455	-319.3341894740502	1025.2308188377403	3630.3255224418344
-168.07062603897378	-168.07062603897378	1781.5486360131222	2184.9181385066595
50.42118781169214	0.0	4588.3280908639845	184.8776886428712
218.49181385066595	134.45650083117903	4437.064527428909	-268.91300166235806
218.49181385066595	184.8776886428712	2218.5322637144545	-537.8260033247161
-67.22825041558951	-33.61412520779476	-638.6683789481004	-302.5271268701528
-621.861316344203	-201.68475124676857	-1949.619262052096	756.3178171753822
-1042.0378814416376	-403.36950249353714	-2705.937079227478	1663.8991977858407
-1226.9155700845088	-672.2825041558951	-3243.7630825521946	2084.0757628832753
-1210.1085074806113	-689.0895667597925	-1428.6003213312774	1058.844944045535
-907.5813806104586	-571.4401285325109	-487.404815513024	470.5977529091267
-571.4401285325109	-319.3341894740502	-773.1248797792795	-218.49181385066595
-252.1059390584607	-84.03531301948689	-1193.301444876714	-605.0542537403056
33.61412520779476	0.0	-857.1601927987663	-638.6683789481004
184.8776886428712	-16.80706260389738	-117.64943822728168	-571.4401285325109
319.3341894740502	117.64943822728168	958.0025684221506	-470.5977529091267
453.7906903052293	285.72006426625546	1310.9508831039957	-705.89662936369
672.2825041558951	336.14125207794757	1445.4073839351747	-958.0025684221506
806.7390049870743	386.56243988963973	638.6683789481004	-1579.8638847663537
974.809631026048	605.0542537403056	-689.0895667597925	-2084.0757628832753
924.3884432143559	638.6683789481004	-873.9672554026638	-1815.1627612209172
655.4754415519978	403.36950249353714	1277.3367578962009	-705.89662936369
184.8776886428712	554.6330659286136	3815.203211084705	-33.61412520779476
-50.42118781169214	386.56243988963973	2168.111075902762	907.5813806104586
-319.3341894740502	-100.84237562338429	-184.8776886428712	1983.2333872598908
-588.2471911364083	-436.9836277013319	-504.2118781169214	1445.4073839351747
-554.6330659286136	-369.7553772857424	-907.5813806104586	285.72006426625546
-403.36950249353714	-201.68475124676857	-100.84237562338429	-352.948314681845
-151.2635634350764	-235.29887645456336	1495.828571746867	-168.07062603897378
50.42118781169214	-218.49181385066595	1428.6003213312774	-352.948314681845
201.68475124676857	-218.49181385066595	638.6683789481004	-689.0895667597925
571.4401285325109	-134.45650083117903	-504.2118781169214	-1176.4943822728167
823.5460675909717	16.80706260389738	-1075.6520066494322	-1563.0568221624562
823.5460675909717	134.45650083117903	-1529.4426969546614	-1529.4426969546614
605.0542537403056	218.49181385066595	-1663.8991977858407	-1260.5296952923036
285.72006426625546	84.03531301948689	-2016.8475124676856	-487.404815513024
-100.84237562338429	-50.42118781169214	-1495.828571746867	588.2471911364083
-235.29887645456336	0.0	-756.3178171753822	1226.9155700845088
-453.7906903052293	117.64943822728168	-991.6166936299454	1445.4073839351747
-588.2471911364083	-33.61412520779476	-1226.9155700845088	1529.4426969546614
-487.404815513024	16.80706260389738	-1563.0568221624562	168.07062603897378
16.80706260389738	235.29887645456336	201.68475124676857	-117.64943822728168
235.29887645456336	201.68475124676857	1243.722632688406	-151.2635634350764
218.49181385066595	33.61412520779476	1714.3203855975325	-16.80706260389738
67.22825041558951	-50.42118781169214	1949.619262052096	-319.3341894740502
-168.07062603897378	-235.29887645456336	2874.007705266452	-537.8260033247161
-420.17656509743455	-453.7906903052293	3899.238524104192	621.861316344203
-453.7906903052293	-252.1059390584607	689.0895667597925	1159.6873196689191
-470.5977529091267	-134.45650083117903	-2537.8664531885042	1327.7579457078932
-638.6683789481004	-285.72006426625546	-2907.621830474247	806.7390049870743
-453.7906903052293	-252.1059390584607	-2420.2170149612225	840.3531301948691
-100.84237562338429	-235.29887645456336	-2672.3229540196835	336.14125207794757
285.72006426625546	16.80706260389738	-2874.007705266452	-974.809631026048
453.7906903052293	67.22825041558951	-1109.2661318572273	-2033.6545750715832
722.7036919675874	100.84237562338429	-991.6166936299454	-1983.2333872598908
571.4401285325109	201.68475124676857	-2941.2359556820415	-1747.9345108053276
285.72006426625546	252.1059390584607	-1428.6003213312774	-336.14125207794757
-218.49181385066595	-201.68475124676857	4840.434029922445	2319.3746393378383
-521.0189407208188	-453.7906903052293	6706.017978955055	2941.2359556820415
-773.1248797792795	-453.7906903052293	6403.490852084902	2756.35826703917
-857.1601927987663	-352.948314681845	5092.539968980906	1193.301444876714
-621.861316344203	33.61412520779476	1378.179133519585	0.0
-302.5271268701528	218.49181385066595	-605.0542537403056	-554.6330659286136
84.03531301948689	336.14125207794757	-1613.4780099741486	-672.2825041558951
151.2635634350764	369.7553772857424	-2420.2170149612225	-823.5460675909717
33.61412520779476	201.68475124676857	-991.6166936299454	-571.4401285325109
84.03531301948689	0.0	117.64943822728168	-252.1059390584607
117.64943822728168	-16.80706260389738	235.29887645456336	-739.5107545714848
33.61412520779476	-134.45650083117903	16.80706260389738	-991.6166936299454
-235.29887645456336	-100.84237562338429	268.91300166235806	-1193.301444876714
-302.5271268701528	-184.8776886428712	1327.7579457078932	-504.2118781169214
67.22825041558951	-134.45650083117903	184.8776886428712	218.49181385066595
201.68475124676857	-100.84237562338429	-1932.8121994481987	504.2118781169214
201.68475124676857	-184.8776886428712	-1882.3910116365068	840.3531301948691
100.84237562338429	-218.49181385066595	-420.17656509743455	453.7906903052293
235.29887645456336	-50.42118781169214	-789.9319423831769	-252.1059390584607
420.17656509743455	0.0	-1546.249759558559	-521.0189407208188
336.14125207794757	-50.42118781169214	-1025.2308188377403	-403.36950249353714
235.29887645456336	16.80706260389738	-453.7906903052293	-504.2118781169214
201.68475124676857	168.07062603897378	-302.5271268701528	-689.0895667597925
151.2635634350764	151.2635634350764	-168.07062603897378	-386.56243988963973
16.80706260389738	50.42118781169214	991.6166936299454	33.61412520779476
16.80706260389738	16.80706260389738	2437.02407756512	-67.22825041558951
33.61412520779476	0.0	1512.6356343507643	50.42118781169214
67.22825041558951	-50.42118781169214	773.1248797792795	336.14125207794757
352.948314681845	117.64943822728168	268.91300166235806	184.8776886428712
689.0895667597925	252.1059390584607	-655.4754415519978	-1025.2308188377403
857.1601927987663	201.68475124676857	-621.861316344203	-1260.5296952923036
722.7036919675874	168.07062603897378	-1848.7768864287118	-1243.722632688406
588.2471911364083	201.68475124676857	100.84237562338429	-1428.6003213312774
268.91300166235806	67.22825041558951	-554.6330659286136	-924.3884432143559
-33.61412520779476	-218.49181385066595	722.7036919675874	-117.64943822728168
-453.7906903052293	-285.72006426625546	1764.7415734092249	537.8260033247161
-806.7390049870743	-100.84237562338429	33.61412520779476	336.14125207794757
-739.5107545714848	-268.91300166235806	-806.7390049870743	1226.9155700845088
-873.9672554026638	-420.17656509743455	-2487.445265376812	1546.249759558559
-1210.1085074806113	-487.404815513024	-2857.200642662555	2033.6545750715832
-1310.9508831039957	-655.4754415519978	-605.0542537403056	2201.725201110557
-1008.4237562338428	-252.1059390584607	-2235.3393263183516	1882.3910116365068
-521.0189407208188	16.80706260389738	-3344.605458175579	739.5107545714848
67.22825041558951	235.29887645456336	-2352.9887645456333	-33.61412520779476
403.36950249353714	336.14125207794757	-1327.7579457078932	-218.49181385066595
420.17656509743455	386.56243988963973	302.5271268701528	-588.2471911364083
504.2118781169214	487.404815513024	1798.3556986170197	-974.809631026048
621.861316344203	436.9836277013319	1126.0731944611243	-1193.301444876714
487.404815513024	285.72006426625546	1075.6520066494322	-571.4401285325109
218.49181385066595	-235.29887645456336	756.3178171753822	-50.42118781169214
-218.49181385066595	-655.4754415519978	1462.214446539072	-369.7553772857424
-638.6683789481004	-823.5460675909717	1579.8638847663537	-151.2635634350764
-739.5107545714848	-504.2118781169214	722.7036919675874	369.7553772857424
-504.2118781169214	-319.3341894740502	1142.8802570650219	1243.722632688406
-420.17656509743455	-252.1059390584607	857.1601927987663	907.5813806104586
-285.72006426625546	-84.03531301948689	-268.91300166235806	470.5977529091267
117.64943822728168	84.03531301948689	537.8260033247161	100.84237562338429
436.9836277013319	84.03531301948689	1126.0731944611243	-67.22825041558951
554.6330659286136	201.68475124676857	2823.58651745476	-352.948314681845
605.0542537403056	184.8776886428712	4386.643339617216	-689.0895667597925
436.9836277013319	168.07062603897378	4353.029214409422	-789.9319423831769
268.91300166235806	168.07062603897378	4168.151525766551	-689.0895667597925
184.8776886428712	235.29887645456336	151.2635634350764	-958.0025684221506
319.3341894740502	252.1059390584607	-3546.2902094223473	-504.2118781169214
436.9836277013319	302.5271268701528	-4638.749278675677	-184.8776886428712
201.68475124676857	201.68475124676857	-5260.61059501988	-319.3341894740502
16.80706260389738	218.49181385066595	-4016.8879623314742	-756.3178171753822
117.64943822728168	285.72006426625546	-2235.3393263183516	-1075.6520066494322
184.8776886428712	33.61412520779476	-2504.2523279807097	-571.4401285325109
151.2635634350764	-151.2635634350764	-1260.5296952923036	-420.17656509743455
-201.68475124676857	-285.72006426625546	-50.42118781169214	-319.3341894740502
-470.5977529091267	-386.56243988963973	-1546.249759558559	-436.9836277013319
-436.9836277013319	-453.7906903052293	268.91300166235806	-67.22825041558951
-100.84237562338429	-336.14125207794757	-1966.4263246559935	369.7553772857424
420.17656509743455	33.61412520779476	-621.861316344203	0.0
487.404815513024	252.1059390584607	-1210.1085074806113	50.42118781169214
537.8260033247161	386.56243988963973	-1579.8638847663537	117.64943822728168
117.64943822728168	134.45650083117903	2285.7605141300437	941.1955058182534
-369.7553772857424	-117.64943822728168	4907.662280338035	1949.619262052096
-789.9319423831769	-285.72006426625546	6974.930980617413	2453.8311401690175
-941.1955058182534	-403.36950249353714	3092.499519117118	2739.5512044352727
-1109.2661318572273	-420.17656509743455	2420.2170149612225	1344.5650083117903
-722.7036919675874	-319.3341894740502	2218.5322637144545	403.36950249353714
-319.3341894740502	-252.1059390584607	1445.4073839351747	-184.8776886428712
134.45650083117903	-151.2635634350764	605.0542537403056	-67.22825041558951
285.72006426625546	-33.61412520779476	-436.9836277013319	-386.56243988963973
285.72006426625546	134.45650083117903	-2067.2687002793778	-840.3531301948691
201.68475124676857	201.68475124676857	-2705.937079227478	-974.809631026048
134.45650083117903	100.84237562338429	-2403.4099523573254	-1142.8802570650219
50.42118781169214	168.07062603897378	-2537.8664531885042	-1647.0921351819434
16.80706260389738	184.8776886428712	-2588.287641000197	-1882.3910116365068
84.03531301948689	134.45650083117903	-1932.8121994481987	-1126.0731944611243
168.07062603897378	134.45650083117903	-420.17656509743455	-605.0542537403056
0.0	84.03531301948689	1798.3556986170197	134.45650083117903
-168.07062603897378	-134.45650083117903	3344.605458175579	1344.5650083117903
-50.42118781169214	-235.29887645456336	4218.572713578243	1747.9345108053276
16.80706260389738	-319.3341894740502	2941.2359556820415	1193.301444876714
84.03531301948689	-252.1059390584607	941.1955058182534	134.45650083117903
369.7553772857424	-50.42118781169214	-1361.3720709156878	-958.0025684221506
420.17656509743455	84.03531301948689	-2168.111075902762	-1378.179133519585
302.5271268701528	252.1059390584607	-1630.2850725780459	-1243.722632688406
184.8776886428712	319.3341894740502	-1697.5133229936355	-756.3178171753822
151.2635634350764	201.68475124676857	-1159.6873196689191	235.29887645456336
33.61412520779476	33.61412520779476	-806.7390049870743	1025.2308188377403
16.80706260389738	-134.45650083117903	-369.7553772857424	1042.0378814416376
0.0	-268.91300166235806	-655.4754415519978	-285.72006426625546
-33.61412520779476	-50.42118781169214	-1495.828571746867	-1983.2333872598908
-33.61412520779476	201.68475124676857	-1731.12744820143	-2403.4099523573254
-50.42118781169214	184.8776886428712	-1159.6873196689191	-1445.4073839351747
-268.91300166235806	100.84237562338429	-168.07062603897378	588.2471911364083
-420.17656509743455	-50.42118781169214	-991.6166936299454	2134.4969506949674
-605.0542537403056	-235.29887645456336	-453.7906903052293	2638.708828811889
-689.0895667597925	-537.8260033247161	1126.0731944611243	1848.7768864287118
-571.4401285325109	-571.4401285325109	1142.8802570650219	605.0542537403056
-218.49181385066595	-302.5271268701528	941.1955058182534	201.68475124676857
16.80706260389738	-117.64943822728168	941.1955058182534	-16.80706260389738
201.68475124676857	-117.64943822728168	1226.9155700845088	-252.1059390584607
319.3341894740502	-84.03531301948689	1159.6873196689191	-655.4754415519978
521.0189407208188	117.64943822728168	50.42118781169214	-991.6166936299454
739.5107545714848	235.29887645456336	-1411.79325872738	-1294.1438205000984
705.89662936369	134.45650083117903	50.42118781169214	-1310.9508831039957
487.404815513024	-16.80706260389738	689.0895667597925	-991.6166936299454
268.91300166235806	235.29887645456336	-487.404815513024	-252.1059390584607
16.80706260389738	302.5271268701528	-1327.7579457078932	739.5107545714848
-201.68475124676857	151.2635634350764	1916.0051368443012	1798.3556986170197
-487.404815513024	50.42118781169214	2874.007705266452	1663.8991977858407
-537.8260033247161	117.64943822728168	2050.4616376754807	991.6166936299454
-352.948314681845	117.64943822728168	487.404815513024	-33.61412520779476
16.80706260389738	50.42118781169214	-168.07062603897378	-386.56243988963973
352.948314681845	33.61412520779476	-487.404815513024	-218.49181385066595
521.0189407208188	-33.61412520779476	-1697.5133229936355	-487.404815513024
521.0189407208188	-117.64943822728168	-2369.795827149531	-857.1601927987663
319.3341894740502	-100.84237562338429	-3176.5348321366046	-605.0542537403056
168.07062603897378	-168.07062603897378	-2521.059390584607	369.7553772857424
-151.2635634350764	-218.49181385066595	605.0542537403056	1294.1438205000984
-605.0542537403056	-235.29887645456336	2369.795827149531	1445.4073839351747
-873.9672554026638	-554.6330659286136	806.7390049870743	789.9319423831769
-924.3884432143559	-369.7553772857424	-453.7906903052293	-470.5977529091267
-621.861316344203	-67.22825041558951	-336.14125207794757	-1058.844944045535
-285.72006426625546	134.45650083117903	-857.1601927987663	-1159.6873196689191
-168.07062603897378	117.64943822728168	-789.9319423831769	-1042.0378814416376
-184.8776886428712	201.68475124676857	-739.5107545714848	-1294.1438205000984
-151.2635634350764	336.14125207794757	-151.2635634350764	-1630.2850725780459
33.61412520779476	302.5271268701528	2151.3040132988644	-1008.4237562338428
100.84237562338429	184.8776886428712	4588.3280908639845	-16.80706260389738
151.2635634350764	67.22825041558951	3361.4125207794764	840.3531301948691
235.29887645456336	67.22825041558951	1697.5133229936355	1495.828571746867
218.49181385066595	-50.42118781169214	1361.3720709156878	2285.7605141300437
100.84237562338429	-235.29887645456336	-470.5977529091267	1815.1627612209172
134.45650083117903	-218.49181385066595	-1025.2308188377403	268.91300166235806
100.84237562338429	-100.84237562338429	-1495.828571746867	-689.0895667597925
319.3341894740502	16.80706260389738	-2134.4969506949674	-1260.5296952923036
672.2825041558951	50.42118781169214	-2470.638202772915	-1142.8802570650219
689.0895667597925	-50.42118781169214	-3613.518459837937	-1008.4237562338428
386.56243988963973	-168.07062603897378	-3025.2712687015287	-638.6683789481004
16.80706260389738	-168.07062603897378	-352.948314681845	-33.61412520779476
-151.2635634350764	-252.1059390584607	3563.0972720262444	823.5460675909717
-403.36950249353714	-319.3341894740502	1126.0731944611243	1546.249759558559
-453.7906903052293	-151.2635634350764	537.8260033247161	958.0025684221506
-504.2118781169214	-201.68475124676857	1394.9861961234824	521.0189407208188
-487.404815513024	-16.80706260389738	1630.2850725780459	-403.36950249353714
-117.64943822728168	268.91300166235806	-1479.0215091429695	-958.0025684221506
386.56243988963973	352.948314681845	-3462.25489640286	-924.3884432143559
403.36950249353714	184.8776886428712	-5344.645908039367	-1058.844944045535
252.1059390584607	268.91300166235806	-5882.471911364083	-2168.111075902762
134.45650083117903	336.14125207794757	-6252.227288649825	-2184.9181385066595
-67.22825041558951	285.72006426625546	-2823.58651745476	-857.1601927987663
-302.5271268701528	-252.1059390584607	1176.4943822728167	1663.8991977858407
-521.0189407208188	-504.2118781169214	5294.224720227675	2857.200642662555
-655.4754415519978	-302.5271268701528	11848.979135747652	2084.0757628832753
-621.861316344203	16.80706260389738	4756.398716902959	655.4754415519978
302.5271268701528	84.03531301948689	1226.9155700845088	50.42118781169214
1092.4590692533297	117.64943822728168	1344.5650083117903	0.0
1126.0731944611243	-16.80706260389738	907.5813806104586	16.80706260389738
823.5460675909717	-117.64943822728168	2487.445265376812	-33.61412520779476
588.2471911364083	-67.22825041558951	5697.594222721213	201.68475124676857
100.84237562338429	-168.07062603897378	6621.982665935568	722.7036919675874
-268.91300166235806	-201.68475124676857	2605.0947036040943	806.7390049870743
-739.5107545714848	-319.3341894740502	-168.07062603897378	907.5813806104586
-1092.4590692533297	-252.1059390584607	-1462.214446539072	-67.22825041558951
-924.3884432143559	-285.72006426625546	-2067.2687002793778	-67.22825041558951
-689.0895667597925	-117.64943822728168	-2874.007705266452	151.2635634350764
-605.0542537403056	-117.64943822728168	-2823.58651745476	117.64943822728168
-621.861316344203	-100.84237562338429	-1949.619262052096	-386.56243988963973
-336.14125207794757	33.61412520779476	-2504.2523279807097	-537.8260033247161
-50.42118781169214	-33.61412520779476	-3445.4478337989626	-352.948314681845
84.03531301948689	-50.42118781169214	-5193.38234460429	-470.5977529091267
201.68475124676857	50.42118781169214	-5781.629535740699	-689.0895667597925
252.1059390584607	134.45650083117903	-4924.469342941932	-1277.3367578962009
487.404815513024	268.91300166235806	-3596.7113972340394	-1445.4073839351747
537.8260033247161	352.948314681845	-2033.6545750715832	-1226.9155700845088
352.948314681845	134.45650083117903	958.0025684221506	-420.17656509743455
50.42118781169214	16.80706260389738	4806.819904714651	319.3341894740502
-168.07062603897378	-50.42118781169214	5243.803532415983	1210.1085074806113
-319.3341894740502	-302.5271268701528	2420.2170149612225	1126.0731944611243
-504.2118781169214	-369.7553772857424	1344.5650083117903	621.861316344203
-386.56243988963973	-134.45650083117903	756.3178171753822	134.45650083117903
-50.42118781169214	33.61412520779476	336.14125207794757	-16.80706260389738
336.14125207794757	117.64943822728168	117.64943822728168	-84.03531301948689
470.5977529091267	168.07062603897378	-67.22825041558951	-302.5271268701528
453.7906903052293	184.8776886428712	302.5271268701528	-386.56243988963973
252.1059390584607	201.68475124676857	1226.9155700845088	-386.56243988963973
252.1059390584607	252.1059390584607	2403.4099523573254	-588.2471911364083
302.5271268701528	319.3341894740502	1781.5486360131222	-621.861316344203
252.1059390584607	201.68475124676857	1294.1438205000984	-117.64943822728168
134.45650083117903	-117.64943822728168	1899.198074240404	84.03531301948689
0.0	-184.8776886428712	1882.3910116365068	-504.2118781169214
50.42118781169214	-134.45650083117903	-268.91300166235806	-873.9672554026638
100.84237562338429	16.80706260389738	-1445.4073839351747	-1680.7062603897382
302.5271268701528	151.2635634350764	-3109.3065817210154	-1966.4263246559935
235.29887645456336	134.45650083117903	-5428.681221058854	-1479.0215091429695
-50.42118781169214	33.61412520779476	-4353.029214409422	-789.9319423831769
-151.2635634350764	-184.8776886428712	-2369.795827149531	907.5813806104586
-134.45650083117903	-184.8776886428712	521.0189407208188	2033.6545750715832
-252.1059390584607	-369.7553772857424	2252.1463889222487	3226.956019948297
-537.8260033247161	-756.3178171753822	605.0542537403056	3647.1325850457315
-672.2825041558951	-739.5107545714848	-302.5271268701528	2537.8664531885042
-689.0895667597925	-554.6330659286136	-554.6330659286136	1764.7415734092249
-453.7906903052293	-252.1059390584607	-705.89662936369	1092.4590692533297
-319.3341894740502	-168.07062603897378	-789.9319423831769	218.49181385066595
-151.2635634350764	117.64943822728168	-537.8260033247161	-436.9836277013319
50.42118781169214	268.91300166235806	151.2635634350764	-941.1955058182534
235.29887645456336	369.7553772857424	436.9836277013319	-1277.3367578962009
605.0542537403056	487.404815513024	-134.45650083117903	-1579.8638847663537
873.9672554026638	621.861316344203	436.9836277013319	-1932.8121994481987
1109.2661318572273	638.6683789481004	470.5977529091267	-1731.12744820143
1042.0378814416376	537.8260033247161	-117.64943822728168	-1142.8802570650219
689.0895667597925	285.72006426625546	-168.07062603897378	-33.61412520779476
336.14125207794757	151.2635634350764	1512.6356343507643	605.0542537403056
-184.8776886428712	-117.64943822728168	3512.6760842145522	1092.4590692533297
-638.6683789481004	-403.36950249353714	1831.9698238248145	1512.6356343507643
-873.9672554026638	-588.2471911364083	1109.2661318572273	1109.2661318572273
-907.5813806104586	-605.0542537403056	2252.1463889222487	100.84237562338429
-689.0895667597925	-521.0189407208188	2487.445265376812	-504.2118781169214
-588.2471911364083	-403.36950249353714	840.3531301948691	-672.2825041558951
-201.68475124676857	-218.49181385066595	-117.64943822728168	-1075.6520066494322
134.45650083117903	16.80706260389738	-991.6166936299454	-1781.5486360131222
403.36950249353714	50.42118781169214	-1747.9345108053276	-890.7743180065611
487.404815513024	84.03531301948689	-1647.0921351819434	-151.2635634350764
336.14125207794757	67.22825041558951	-2302.567576733941	352.948314681845
302.5271268701528	100.84237562338429	-1445.4073839351747	1411.79325872738
67.22825041558951	-50.42118781169214	1865.5839490326093	2302.567576733941
-336.14125207794757	-252.1059390584607	1159.6873196689191	1613.4780099741486
-453.7906903052293	-84.03531301948689	-420.17656509743455	268.91300166235806
-689.0895667597925	67.22825041558951	-1462.214446539072	-504.2118781169214
-689.0895667597925	100.84237562338429	-1445.4073839351747	-504.2118781169214
-638.6683789481004	67.22825041558951	-504.2118781169214	-806.7390049870743
-621.861316344203	16.80706260389738	806.7390049870743	-672.2825041558951
-487.404815513024	-67.22825041558951	2067.2687002793778	-571.4401285325109
-218.49181385066595	67.22825041558951	2655.5158914157864	-857.1601927987663
33.61412520779476	84.03531301948689	1546.249759558559	-1142.8802570650219
319.3341894740502	33.61412520779476	-117.64943822728168	-1042.0378814416376
504.2118781169214	33.61412520779476	-1193.301444876714	-1176.4943822728167
588.2471911364083	84.03531301948689	-1798.3556986170197	-1075.6520066494322
705.89662936369	134.45650083117903	-2689.1300166235806	-773.1248797792795
655.4754415519978	-67.22825041558951	-1781.5486360131222	-201.68475124676857
403.36950249353714	-84.03531301948689	-588.2471911364083	285.72006426625546
252.1059390584607	-16.80706260389738	302.5271268701528	-252.1059390584607
-84.03531301948689	-151.2635634350764	-218.49181385066595	840.3531301948691
-168.07062603897378	-218.49181385066595	-1378.179133519585	1630.2850725780459
-285.72006426625546	-252.1059390584607	-3058.885393909323	1613.4780099741486
-252.1059390584607	-319.3341894740502	-3479.0619590067577	873.9672554026638
-100.84237562338429	-285.72006426625546	-756.3178171753822	-504.2118781169214
386.56243988963973	201.68475124676857	-1798.3556986170197	-1361.3720709156878
756.3178171753822	470.5977529091267	-2689.1300166235806	-2352.9887645456333
739.5107545714848	386.56243988963973	1495.828571746867	-2084.0757628832753
403.36950249353714	201.68475124676857	4252.186838786037	-67.22825041558951
-50.42118781169214	268.91300166235806	3058.885393909323	1932.8121994481987
-302.5271268701528	-33.61412520779476	2151.3040132988644	3327.7983955716813
-487.404815513024	-453.7906903052293	1445.4073839351747	3495.869021610655
-857.1601927987663	-571.4401285325109	487.404815513024	2352.9887645456333
-1042.0378814416376	-487.404815513024	168.07062603897378	958.0025684221506
-958.0025684221506	-352.948314681845	201.68475124676857	50.42118781169214
-554.6330659286136	-235.29887645456336	-168.07062603897378	-100.84237562338429
-151.2635634350764	-117.64943822728168	-302.5271268701528	-436.9836277013319
252.1059390584607	-16.80706260389738	-50.42118781169214	-722.7036919675874
487.404815513024	50.42118781169214	-235.29887645456336	-1042.0378814416376
571.4401285325109	201.68475124676857	-789.9319423831769	-1546.249759558559
487.404815513024	252.1059390584607	-84.03531301948689	-1495.828571746867
403.36950249353714	168.07062603897378	2134.4969506949674	-722.7036919675874
268.91300166235806	235.29887645456336	1899.198074240404	436.9836277013319
84.03531301948689	268.91300166235806	789.9319423831769	1092.4590692533297
-168.07062603897378	184.8776886428712	605.0542537403056	1025.2308188377403
-319.3341894740502	151.2635634350764	151.2635634350764	571.4401285325109
-252.1059390584607	252.1059390584607	-588.2471911364083	-184.8776886428712
-117.64943822728168	268.91300166235806	-1126.0731944611243	-907.5813806104586
134.45650083117903	218.49181385066595	-403.36950249353714	-1142.8802570650219
201.68475124676857	67.22825041558951	1075.6520066494322	-1277.3367578962009
50.42118781169214	-201.68475124676857	2605.0947036040943	-1092.4590692533297
16.80706260389738	-352.948314681845	3210.1489573443996	-117.64943822728168
84.03531301948689	-386.56243988963973	386.56243988963973	823.5460675909717
84.03531301948689	-554.6330659286136	84.03531301948689	1546.249759558559
67.22825041558951	-521.0189407208188	-1075.6520066494322	773.1248797792795
268.91300166235806	-285.72006426625546	-3294.1842703638868	-1109.2661318572273
319.3341894740502	0.0	-2521.059390584607	-1882.3910116365068
386.56243988963973	100.84237562338429	-184.8776886428712	-941.1955058182534
184.8776886428712	16.80706260389738	2033.6545750715832	-16.80706260389738
-235.29887645456336	-100.84237562338429	3714.360835461321	638.6683789481004
-689.0895667597925	-151.2635634350764	2689.1300166235806	1445.4073839351747
-958.0025684221506	-319.3341894740502	1394.9861961234824	1563.0568221624562
-823.5460675909717	-252.1059390584607	-151.2635634350764	218.49181385066595
-504.2118781169214	-16.80706260389738	-168.07062603897378	-621.861316344203
16.80706260389738	302.5271268701528	-1546.249759558559	-756.3178171753822
369.7553772857424	420.17656509743455	-3327.7983955716813	-739.5107545714848
436.9836277013319	588.2471911364083	-3512.6760842145522	-1277.3367578962009
184.8776886428712	336.14125207794757	-2537.8664531885042	-672.2825041558951
184.8776886428712	235.29887645456336	-252.1059390584607	-33.61412520779476
16.80706260389738	168.07062603897378	-2117.68988809107	756.3178171753822
-84.03531301948689	16.80706260389738	-2672.3229540196835	1008.4237562338428
-218.49181385066595	-252.1059390584607	-2857.200642662555	722.7036919675874
0.0	-50.42118781169214	-2100.8828254871723	-789.9319423831769
571.4401285325109	117.64943822728168	352.948314681845	-1294.1438205000984
689.0895667597925	-100.84237562338429	537.8260033247161	-1159.6873196689191
655.4754415519978	-369.7553772857424	705.89662936369	-151.2635634350764
571.4401285325109	-285.72006426625546	1613.4780099741486	655.4754415519978
302.5271268701528	-100.84237562338429	2336.181701941736	941.1955058182534
-218.49181385066595	-521.0189407208188	756.3178171753822	2336.181701941736
-873.9672554026638	-722.7036919675874	621.861316344203	2033.6545750715832
-1294.1438205000984	-436.9836277013319	504.2118781169214	689.0895667597925
-1327.7579457078932	-184.8776886428712	1277.3367578962009	-235.29887645456336
-823.5460675909717	16.80706260389738	722.7036919675874	0.0
-571.4401285325109	33.61412520779476	-941.1955058182534	168.07062603897378
-386.56243988963973	117.64943822728168	-1647.0921351819434	-285.72006426625546
0.0	252.1059390584607	-1764.7415734092249	-672.2825041558951
218.49181385066595	352.948314681845	-1394.9861961234824	-1159.6873196689191
386.56243988963973	470.5977529091267	-1378.179133519585	-1294.1438205000984
537.8260033247161	352.948314681845	369.7553772857424	-1176.4943822728167
739.5107545714848	386.56243988963973	1596.670947370251	-974.809631026048
739.5107545714848	420.17656509743455	117.64943822728168	-336.14125207794757
638.6683789481004	184.8776886428712	773.1248797792795	655.4754415519978
386.56243988963973	33.61412520779476	1831.9698238248145	756.3178171753822
33.61412520779476	-151.2635634350764	2403.4099523573254	588.2471911364083
-184.8776886428712	-100.84237562338429	1159.6873196689191	487.404815513024
-252.1059390584607	-403.36950249353714	1058.844944045535	1294.1438205000984
-470.5977529091267	-554.6330659286136	1008.4237562338428	924.3884432143559
-571.4401285325109	-369.7553772857424	-1277.3367578962009	-100.84237562338429
-302.5271268701528	-151.2635634350764	-2302.567576733941	-621.861316344203
84.03531301948689	-16.80706260389738	-3243.7630825521946	-840.3531301948691
403.36950249353714	134.45650083117903	-4201.765650974345	-1075.6520066494322
722.7036919675874	268.91300166235806	-2857.200642662555	-873.9672554026638
689.0895667597925	134.45650083117903	-168.07062603897378	-672.2825041558951
487.404815513024	-67.22825041558951	2789.972392246965	-655.4754415519978
319.3341894740502	-100.84237562338429	4941.27640554583	-571.4401285325109
-33.61412520779476	-134.45650083117903	4487.4857152406	-16.80706260389738
-302.5271268701528	16.80706260389738	3025.2712687015287	453.7906903052293
-386.56243988963973	-16.80706260389738	-302.5271268701528	1479.0215091429695
-420.17656509743455	-84.03531301948689	-806.7390049870743	1042.0378814416376
-521.0189407208188	-252.1059390584607	-352.948314681845	638.6683789481004
-571.4401285325109	-252.1059390584607	168.07062603897378	16.80706260389738
-420.17656509743455	-285.72006426625546	991.6166936299454	-386.56243988963973
-168.07062603897378	-218.49181385066595	-235.29887645456336	-487.404815513024
100.84237562338429	67.22825041558951	-453.7906903052293	-840.3531301948691
218.49181385066595	134.45650083117903	50.42118781169214	-605.0542537403056
201.68475124676857	67.22825041558951	-1462.214446539072	-1042.0378814416376
218.49181385066595	134.45650083117903	-1277.3367578962009	-1075.6520066494322
201.68475124676857	336.14125207794757	-571.4401285325109	-1428.6003213312774
151.2635634350764	302.5271268701528	-521.0189407208188	-1546.249759558559
33.61412520779476	151.2635634350764	705.89662936369	-756.3178171753822
-134.45650083117903	134.45650083117903	2941.2359556820415	302.5271268701528
16.80706260389738	134.45650083117903	3613.518459837937	2084.0757628832753
84.03531301948689	100.84237562338429	2974.8500808898366	2504.2523279807097
0.0	-336.14125207794757	1663.8991977858407	2336.181701941736
-151.2635634350764	-655.4754415519978	470.5977529091267	1680.7062603897382
-184.8776886428712	-420.17656509743455	-873.9672554026638	672.2825041558951
117.64943822728168	-151.2635634350764	-638.6683789481004	-369.7553772857424
638.6683789481004	134.45650083117903	-2386.602889753428	-857.1601927987663
739.5107545714848	302.5271268701528	-2184.9181385066595	-1680.7062603897382
521.0189407208188	403.36950249353714	-2420.2170149612225	-2386.602889753428
218.49181385066595	218.49181385066595	-2386.602889753428	-1126.0731944611243
-201.68475124676857	50.42118781169214	-2218.5322637144545	789.9319423831769
-369.7553772857424	-386.56243988963973	-2890.8147678703494	2571.4805783962993
-890.7743180065611	-941.1955058182534	-2369.795827149531	2453.8311401690175
-907.5813806104586	-739.5107545714848	-621.861316344203	537.8260033247161
-638.6683789481004	-588.2471911364083	722.7036919675874	-823.5460675909717
-352.948314681845	-285.72006426625546	1344.5650083117903	-890.7743180065611
-218.49181385066595	-151.2635634350764	1613.4780099741486	-184.8776886428712
-168.07062603897378	-33.61412520779476	991.6166936299454	117.64943822728168
67.22825041558951	-16.80706260389738	-134.45650083117903	773.1248797792795
0.0	-84.03531301948689	-907.5813806104586	1176.4943822728167
-201.68475124676857	-100.84237562338429	-1025.2308188377403	705.89662936369
-403.36950249353714	0.0	-537.8260033247161	218.49181385066595
-470.5977529091267	-16.80706260389738	-386.56243988963973	352.948314681845
-336.14125207794757	117.64943822728168	705.89662936369	16.80706260389738
-100.84237562338429	117.64943822728168	453.7906903052293	-369.7553772857424
302.5271268701528	268.91300166235806	-1495.828571746867	-974.809631026048
386.56243988963973	218.49181385066595	-1294.1438205000984	-1159.6873196689191
386.56243988963973	268.91300166235806	-638.6683789481004	-907.5813806104586
403.36950249353714	235.29887645456336	285.72006426625546	-235.29887645456336
336.14125207794757	235.29887645456336	1310.9508831039957	521.0189407208188
268.91300166235806	319.3341894740502	2100.8828254871723	-117.64943822728168
336.14125207794757	336.14125207794757	1731.12744820143	-386.56243988963973
319.3341894740502	268.91300166235806	184.8776886428712	-958.0025684221506
302.5271268701528	218.49181385066595	-672.2825041558951	-1176.4943822728167
352.948314681845	285.72006426625546	-655.4754415519978	-1764.7415734092249
252.1059390584607	-50.42118781169214	470.5977529091267	-1092.4590692533297
100.84237562338429	-319.3341894740502	739.5107545714848	33.61412520779476
-134.45650083117903	-336.14125207794757	1260.5296952923036	-50.42118781169214
-201.68475124676857	-352.948314681845	1899.198074240404	-50.42118781169214
-369.7553772857424	-521.0189407208188	2874.007705266452	436.9836277013319
-369.7553772857424	-369.7553772857424	2252.1463889222487	1042.0378814416376
-487.404815513024	-268.91300166235806	2789.972392246965	1294.1438205000984
-504.2118781169214	-117.64943822728168	-84.03531301948689	1479.0215091429695
-537.8260033247161	84.03531301948689	-1546.249759558559	1428.6003213312774
-403.36950249353714	184.8776886428712	-2016.8475124676856	436.9836277013319
-319.3341894740502	100.84237562338429	-2369.795827149531	84.03531301948689
-235.29887645456336	0.0	-2655.5158914157864	-67.22825041558951
-151.2635634350764	33.61412520779476	-1563.0568221624562	-168.07062603897378
0.0	67.22825041558951	302.5271268701528	-218.49181385066595
117.64943822728168	50.42118781169214	1462.214446539072	-252.1059390584607
184.8776886428712	16.80706260389738	2403.4099523573254	-201.68475124676857
201.68475124676857	-100.84237562338429	2235.3393263183516	-100.84237562338429
235.29887645456336	-67.22825041558951	168.07062603897378	-369.7553772857424
252.1059390584607	67.22825041558951	-1428.6003213312774	-537.8260033247161
235.29887645456336	50.42118781169214	-1932.8121994481987	-554.6330659286136
252.1059390584607	0.0	-2268.953451526146	-470.5977529091267
268.91300166235806	33.61412520779476	-2168.111075902762	-588.2471911364083
487.404815513024	50.42118781169214	-2302.567576733941	-756.3178171753822
554.6330659286136	67.22825041558951	-2386.602889753428	-1042.0378814416376
638.6683789481004	134.45650083117903	-3058.885393909323	-958.0025684221506
739.5107545714848	302.5271268701528	-3579.904334630142	-1781.5486360131222
890.7743180065611	403.36950249353714	-3596.7113972340394	-2050.4616376754807
773.1248797792795	403.36950249353714	-2420.2170149612225	-1226.9155700845088
369.7553772857424	285.72006426625546	-285.72006426625546	-470.5977529091267
50.42118781169214	100.84237562338429	2336.181701941736	151.2635634350764
-470.5977529091267	-319.3341894740502	6739.632104162849	1798.3556986170197
-974.809631026048	-504.2118781169214	9008.585555688995	3495.869021610655
-1344.5650083117903	-487.404815513024	6033.735474799159	3512.6760842145522
-1226.9155700845088	-571.4401285325109	3445.4478337989626	1831.9698238248145
-823.5460675909717	-352.948314681845	1916.0051368443012	100.84237562338429
-470.5977529091267	-285.72006426625546	268.91300166235806	-184.8776886428712
-252.1059390584607	-84.03531301948689	-907.5813806104586	-268.91300166235806
0.0	-33.61412520779476	-1747.9345108053276	33.61412520779476
151.2635634350764	-134.45650083117903	-2100.8828254871723	67.22825041558951
201.68475124676857	-218.49181385066595	-2789.972392246965	-134.45650083117903
-33.61412520779476	-302.5271268701528	-1479.0215091429695	470.5977529091267
-184.8776886428712	-117.64943822728168	-1075.6520066494322	1193.301444876714
33.61412520779476	16.80706260389738	-958.0025684221506	1210.1085074806113
134.45650083117903	117.64943822728168	-655.4754415519978	235.29887645456336
67.22825041558951	84.03531301948689	-621.861316344203	-336.14125207794757
117.64943822728168	168.07062603897378	-1378.179133519585	-722.7036919675874
369.7553772857424	336.14125207794757	-789.9319423831769	-1310.9508831039957
705.89662936369	537.8260033247161	-302.5271268701528	-2319.3746393378383
1058.844944045535	655.4754415519978	-890.7743180065611	-3344.605458175579
1109.2661318572273	705.89662936369	-3462.25489640286	-3731.1678980652187
756.3178171753822	571.4401285325109	-2453.8311401690175	-2504.2523279807097
235.29887645456336	84.03531301948689	3932.852649311987	487.404815513024
-352.948314681845	-302.5271268701528	4739.591654299062	2958.043018285939
-857.1601927987663	-588.2471911364083	285.72006426625546	4521.099840448395
-1226.9155700845088	-756.3178171753822	100.84237562338429	4016.8879623314742
-1546.249759558559	-1109.2661318572273	857.1601927987663	2554.6735157924018
-1529.4426969546614	-907.5813806104586	1327.7579457078932	470.5977529091267
-1159.6873196689191	-638.6683789481004	571.4401285325109	-268.91300166235806
-537.8260033247161	-436.9836277013319	-201.68475124676857	-352.948314681845
-67.22825041558951	-319.3341894740502	-168.07062603897378	-184.8776886428712
168.07062603897378	-235.29887645456336	319.3341894740502	-319.3341894740502
352.948314681845	-117.64943822728168	504.2118781169214	-1109.2661318572273
386.56243988963973	-33.61412520779476	1378.179133519585	-1176.4943822728167
336.14125207794757	-50.42118781169214	1092.4590692533297	-487.404815513024
302.5271268701528	100.84237562338429	151.2635634350764	-252.1059390584607
252.1059390584607	268.91300166235806	-840.3531301948691	-134.45650083117903
151.2635634350764	201.68475124676857	-1579.8638847663537	151.2635634350764
268.91300166235806	386.56243988963973	-2554.6735157924018	-420.17656509743455
386.56243988963973	487.404815513024	-2621.9017662079914	-1058.844944045535
521.0189407208188	537.8260033247161	-1764.7415734092249	-1462.214446539072
554.6330659286136	554.6330659286136	-1781.5486360131222	-1529.4426969546614
470.5977529091267	504.2118781169214	-2302.567576733941	-1008.4237562338428
319.3341894740502	218.49181385066595	-2134.4969506949674	184.8776886428712
201.68475124676857	184.8776886428712	352.948314681845	991.6166936299454
33.61412520779476	-84.03531301948689	1394.9861961234824	537.8260033247161
-218.49181385066595	-268.91300166235806	2184.9181385066595	-201.68475124676857
-235.29887645456336	-218.49181385066595	4235.37977618214	-184.8776886428712
-252.1059390584607	-268.91300166235806	5025.311718565316	134.45650083117903
-319.3341894740502	-134.45650083117903	4369.836277013319	84.03531301948689
-487.404815513024	-319.3341894740502	3630.3255224418344	857.1601927987663
-571.4401285325109	-336.14125207794757	571.4401285325109	235.29887645456336
-302.5271268701528	-235.29887645456336	-672.2825041558951	-319.3341894740502
-84.03531301948689	-84.03531301948689	-1310.9508831039957	-605.0542537403056
134.45650083117903	0.0	-2554.6735157924018	-571.4401285325109
285.72006426625546	0.0	-1848.7768864287118	-285.72006426625546
235.29887645456336	50.42118781169214	-1394.9861961234824	-168.07062603897378
33.61412520779476	168.07062603897378	-840.3531301948691	268.91300166235806
-100.84237562338429	67.22825041558951	-924.3884432143559	336.14125207794757
-235.29887645456336	0.0	-285.72006426625546	252.1059390584607
-453.7906903052293	50.42118781169214	-521.0189407208188	873.9672554026638
-403.36950249353714	151.2635634350764	-1092.4590692533297	739.5107545714848
-252.1059390584607	151.2635634350764	-134.45650083117903	1058.844944045535
-100.84237562338429	151.2635634350764	-252.1059390584607	1327.7579457078932
168.07062603897378	67.22825041558951	201.68475124676857	789.9319423831769
369.7553772857424	16.80706260389738	84.03531301948689	-319.3341894740502
554.6330659286136	0.0	-672.2825041558951	-941.1955058182534
638.6683789481004	-33.61412520779476	-756.3178171753822	-1327.7579457078932
773.1248797792795	-16.80706260389738	134.45650083117903	-1327.7579457078932
621.861316344203	-50.42118781169214	-319.3341894740502	-739.5107545714848
436.9836277013319	-33.61412520779476	-504.2118781169214	84.03531301948689
537.8260033247161	-151.2635634350764	-285.72006426625546	1176.4943822728167
436.9836277013319	-168.07062603897378	1865.5839490326093	1193.301444876714
-50.42118781169214	-218.49181385066595	3479.0619590067577	504.2118781169214
-386.56243988963973	-218.49181385066595	-1848.7768864287118	151.2635634350764
-537.8260033247161	-184.8776886428712	-2857.200642662555	-201.68475124676857
-571.4401285325109	16.80706260389738	-1193.301444876714	67.22825041558951
-689.0895667597925	-84.03531301948689	50.42118781169214	352.948314681845
-840.3531301948691	-319.3341894740502	655.4754415519978	436.9836277013319
-840.3531301948691	-168.07062603897378	1798.3556986170197	-403.36950249353714
-420.17656509743455	16.80706260389738	184.8776886428712	-504.2118781169214
-84.03531301948689	117.64943822728168	-823.5460675909717	-924.3884432143559
50.42118781169214	218.49181385066595	-739.5107545714848	-1394.9861961234824
16.80706260389738	168.07062603897378	-1176.4943822728167	-1579.8638847663537
184.8776886428712	218.49181385066595	-50.42118781169214	-1563.0568221624562
386.56243988963973	134.45650083117903	-33.61412520779476	-1394.9861961234824
336.14125207794757	67.22825041558951	-1243.722632688406	-571.4401285325109
100.84237562338429	-33.61412520779476	-268.91300166235806	655.4754415519978
-168.07062603897378	-151.2635634350764	840.3531301948691	1260.5296952923036
-252.1059390584607	-352.948314681845	2285.7605141300437	1378.179133519585
-302.5271268701528	-386.56243988963973	403.36950249353714	1294.1438205000984
-352.948314681845	-453.7906903052293	134.45650083117903	470.5977529091267
-487.404815513024	-420.17656509743455	420.17656509743455	-33.61412520779476
-184.8776886428712	-268.91300166235806	-134.45650083117903	50.42118781169214
0.0	-67.22825041558951	-386.56243988963973	117.64943822728168
252.1059390584607	117.64943822728168	-151.2635634350764	-50.42118781169214
605.0542537403056	151.2635634350764	184.8776886428712	-420.17656509743455
722.7036919675874	285.72006426625546	100.84237562338429	-991.6166936299454
689.0895667597925	436.9836277013319	-369.7553772857424	-1109.2661318572273
453.7906903052293	436.9836277013319	235.29887645456336	-352.948314681845
100.84237562338429	201.68475124676857	-504.2118781169214	285.72006426625546
-117.64943822728168	84.03531301948689	-1563.0568221624562	739.5107545714848
-504.2118781169214	-16.80706260389738	-386.56243988963973	386.56243988963973
-605.0542537403056	-84.03531301948689	1697.5133229936355	-285.72006426625546
-605.0542537403056	-100.84237562338429	2689.1300166235806	-235.29887645456336
-369.7553772857424	-67.22825041558951	2941.2359556820415	571.4401285325109
-134.45650083117903	84.03531301948689	857.1601927987663	151.2635634350764
-84.03531301948689	-16.80706260389738	924.3884432143559	134.45650083117903
33.61412520779476	-302.5271268701528	1378.179133519585	436.9836277013319
84.03531301948689	-436.9836277013319	-588.2471911364083	1126.0731944611243
-50.42118781169214	-336.14125207794757	-1226.9155700845088	1210.1085074806113
50.42118781169214	-184.8776886428712	-1092.4590692533297	336.14125207794757
100.84237562338429	-151.2635634350764	-1932.8121994481987	-672.2825041558951
151.2635634350764	-100.84237562338429	-2151.3040132988644	-1058.844944045535
100.84237562338429	-50.42118781169214	-537.8260033247161	-655.4754415519978
218.49181385066595	-134.45650083117903	-151.2635634350764	689.0895667597925
184.8776886428712	-33.61412520779476	-857.1601927987663	1226.9155700845088
134.45650083117903	-16.80706260389738	-1647.0921351819434	1176.4943822728167
0.0	84.03531301948689	-1630.2850725780459	403.36950249353714
-134.45650083117903	201.68475124676857	-453.7906903052293	-285.72006426625546
-117.64943822728168	268.91300166235806	1361.3720709156878	-504.2118781169214
117.64943822728168	235.29887645456336	2352.9887645456333	-235.29887645456336
168.07062603897378	151.2635634350764	1495.828571746867	-252.1059390584607
134.45650083117903	117.64943822728168	-638.6683789481004	-756.3178171753822
201.68475124676857	151.2635634350764	-2352.9887645456333	-941.1955058182534
319.3341894740502	218.49181385066595	-3008.464206097631	-554.6330659286136
470.5977529091267	151.2635634350764	-3176.5348321366046	336.14125207794757
369.7553772857424	-33.61412520779476	-33.61412520779476	873.9672554026638
84.03531301948689	0.0	3361.4125207794764	420.17656509743455
-201.68475124676857	-201.68475124676857	4453.871590032806	84.03531301948689
-336.14125207794757	-151.2635634350764	4151.344463162653	-436.9836277013319
-386.56243988963973	-168.07062603897378	2453.8311401690175	-302.5271268701528
-453.7906903052293	-436.9836277013319	-268.91300166235806	-235.29887645456336
-537.8260033247161	-403.36950249353714	-2504.2523279807097	-991.6166936299454
-268.91300166235806	-134.45650083117903	-2403.4099523573254	-1176.4943822728167
