MegaWin ASCII file						
						
[DEFINITIONS]						
ChannelCount=8						
DataType=1						
SamplingFreq=1000.000000						
FirstSampleTime=0.001000						
PhaseName=Raw Dynamic 15/12/2017 10:51:49						
						
						
[COMMENT]						
						
						
						
[SOURCE NAMES]						
Quadriceps femoris muscle - rectus femoris						
Quadriceps femoris muscle - rectus femoris						
Quadriceps femoris muscle - rectus femoris						
Quadriceps femoris muscle - rectus femoris						
Quadriceps femoris muscle - vastus lateralis						
Quadriceps femoris muscle - vastus lateralis						
						
						
[SIDE INFO]						
R						
R						
R						
R						
R						
R						
						
						
[UNITS]						
uV						
uV						
uV						
uV						
uV						
uV						
						
						
						
						
						
						
[DATA]						
	403.3695025	218.4918139	-3008.464206	-151.2635634	8140	8114
	588.2471911	252.1059391	-2756.358267	67.22825042	8139	8114
	470.5977529	50.42118781	-2134.496951	-33.61412521	8137	8112
	-33.61412521	-16.8070626	-1865.583949	-537.8260033	8136	8110
	-235.2988765	67.22825042	-369.7553773	-1193.301445	8136	8110
	-168.070626	151.2635634	-1714.320386	-991.6166936	8136	8110
	-134.4565008	252.1059391	-3848.817336	-890.774318	8135	8109
	-235.2988765	151.2635634	-1697.513323	-1226.91557	8134	8107
	-336.1412521	-50.42118781	3714.360835	-722.703692	8133	8108
	-470.5977529	151.2635634	3260.570145	-336.1412521	8133	8108
	-369.7553773	184.8776886	1210.108507	722.703692	8132	8107
	-638.6683789	-100.8423756	-84.03531302	1462.214447	8132	8107
	-773.1248798	-336.1412521	-789.9319424	1361.372071	8132	8106
	-655.4754416	-352.9483147	-2084.075763	521.0189407	8132	8107
	-470.5977529	-268.9130017	-3210.148957	-184.8776886	8132	8107
	-436.9836277	-168.070626	-2521.059391	-470.5977529	8132	8106
	-403.3695025	-218.4918139	-554.6330659	-621.8613163	8131	8106
	-470.5977529	-302.5271269	-672.2825042	420.1765651	8131	8107
	-420.1765651	-336.1412521	-1529.442697	1361.372071	8131	8106
	-201.6847512	-319.3341895	-1916.005137	1764.741573	8130	8105
	-67.22825042	-285.7200643	-1411.793259	302.5271269	8131	8106
	33.61412521	-151.2635634	-1764.741573	-655.4754416	8130	8105
	151.2635634	0	-924.3884432	-873.9672554	8130	8105
	302.5271269	168.070626	806.739005	-655.4754416	8130	8105
	302.5271269	184.8776886	3008.464206	117.6494382	8130	8105
	403.3695025	235.2988765	3848.817336	571.4401285	8130	8105
	554.6330659	588.2471911	605.0542537	-235.2988765	8130	8104
	605.0542537	588.2471911	-235.2988765	-806.739005	8131	8105
	571.4401285	453.7906903	1126.073194	-773.1248798	8130	8105
	605.0542537	453.7906903	1378.179134	-521.0189407	8129	8104
	369.7553773	268.9130017	1394.986196	-285.7200643	8129	8104
	201.6847512	-218.4918139	2487.445265	470.5977529	8128	8104
	-50.42118781	-571.4401285	3529.483147	386.5624399	8129	8104
	-252.1059391	-521.0189407	3361.412521	-218.4918139	8129	8104
	-235.2988765	-521.0189407	638.6683789	16.8070626	8128	8103
	-134.4565008	-453.7906903	-184.8776886	33.61412521	8129	8103
	-100.8423756	-403.3695025	218.4918139	403.3695025	8128	8103
	-201.6847512	-436.9836277	1277.336758	857.1601928	8128	8103
	-201.6847512	-319.3341895	1731.127448	689.0895668	8128	8102
	-117.6494382	-16.8070626	1916.005137	-67.22825042	8127	8102
	67.22825042	268.9130017	453.7906903	-571.4401285	8127	8103
	420.1765651	453.7906903	-1462.214447	-1159.68732	8127	8103
	1058.844944	773.1248798	-2521.059391	-1932.812199	8127	8103
	2184.918139	1210.108507	-4235.379776	-2201.725201	8127	8102
	2235.339326	1142.880257	-4571.521028	-2134.496951	8127	8103
	1529.442697	773.1248798	-789.9319424	-1563.056822	8128	8103
	588.2471911	352.9483147	4840.43403	470.5977529	8127	8103
	-436.9836277	268.9130017	2084.075763	2084.075763	8127	8102
	-1462.214447	-252.1059391	1495.828572	4184.958588	8127	8101
	-2352.988765	-974.809631	-1058.844944	3479.061959	8127	8102
	-2722.744142	-991.6166936	-2588.287641	773.1248798	8127	8102
	-2453.83114	-789.9319424	-2554.673516	-739.5107546	8128	8103
	-1546.24976	-638.6683789	-1663.899198	33.61412521	8127	8102
	-1058.844944	-554.6330659	-470.5977529	-638.6683789	8127	8102
	-873.9672554	-504.2118781	-285.7200643	-1260.529695	8127	8103
	-453.7906903	-302.5271269	-1445.407384	-1109.266132	8127	8102
	-50.42118781	-168.070626	-3058.885394	-1159.68732	8128	8103
	436.9836277	-50.42118781	-4437.064527	-1008.423756	8127	8102
	739.5107546	50.42118781	-4672.363404	-1075.652007	8128	8103
	806.739005	100.8423756	-4453.87159	-1075.652007	8128	8103
	689.0895668	100.8423756	-2084.075763	-1495.828572	8127	8102
	403.3695025	-16.8070626	3848.817336	-1428.600321	8127	8102
	201.6847512	-100.8423756	6403.490852	-319.3341895	8127	8103
	33.61412521	-134.4565008	8537.987803	1243.722633	8128	8103
	-201.6847512	-218.4918139	7680.82761	2100.882825	8128	8103
	-201.6847512	-134.4565008	7243.843982	2722.744142	8128	8103
	-168.070626	67.22825042	3663.939648	1949.619262	8128	8103
	-117.6494382	84.03531302	-168.070626	1058.844944	8127	8102
	100.8423756	235.2988765	-2184.918139	-285.7200643	8128	8103
	252.1059391	386.5624399	-5378.260033	-1260.529695	8129	8104
	436.9836277	453.7906903	-6470.719103	-1008.423756	8128	8103
	436.9836277	268.9130017	-2857.200643	-252.1059391	8129	8104
	235.2988765	-134.4565008	2201.725201	722.703692	8129	8104
	184.8776886	-268.9130017	3462.254896	1042.037881	8129	8103
	117.6494382	-319.3341895	2134.496951	1310.950883	8129	8104
	33.61412521	-504.2118781	941.1955058	1596.670947	8128	8103
	-50.42118781	-487.4048155	487.4048155	268.9130017	8127	8102
	100.8423756	-151.2635634	-1630.285073	-1159.68732	8128	8103
	268.9130017	-33.61412521	-3966.466775	-1344.565008	8128	8103
	470.5977529	151.2635634	-4672.363404	-1210.108507	8129	8104
	672.2825042	100.8423756	-3260.570145	-739.5107546	8129	8104
	605.0542537	0	-1294.143821	-403.3695025	8128	8103
	453.7906903	100.8423756	2336.181702	-100.8423756	8128	8104
	218.4918139	16.8070626	3529.483147	-84.03531302	8127	8103
	-100.8423756	184.8776886	2268.953452	-705.8966294	8127	8103
	-420.1765651	151.2635634	1428.600321	-84.03531302	8127	8103
	-537.8260033	151.2635634	773.1248798	773.1248798	8127	8103
	-705.8966294	-134.4565008	-1613.47801	1025.230819	8127	8103
	-638.6683789	-184.8776886	-1798.355699	470.5977529	8128	8103
	-369.7553773	-168.070626	-2117.689888	117.6494382	8128	8103
	-100.8423756	-16.8070626	-1865.583949	-521.0189407	8128	8104
	386.5624399	168.070626	-2067.2687	-991.6166936	8129	8103
	655.4754416	201.6847512	-1882.391012	-1058.844944	8130	8104
	571.4401285	168.070626	-2621.901766	-537.8260033	8130	8104
	352.9483147	168.070626	-2504.252328	-470.5977529	8128	8103
	134.4565008	67.22825042	-2420.217015	-386.5624399	8128	8103
	-218.4918139	-84.03531302	-1529.442697	-67.22825042	8128	8103
	-621.8613163	-537.8260033	-1327.757946	453.7906903	8129	8104
	-789.9319424	-537.8260033	-100.8423756	1058.844944	8128	8103
	-773.1248798	-487.4048155	1529.442697	1378.179134	8128	8103
	-806.739005	-638.6683789	4958.083468	1394.986196	8129	8104
	-705.8966294	-487.4048155	6033.735475	1075.652007	8128	8103
	-470.5977529	-117.6494382	4319.415089	403.3695025	8127	8103
	-403.3695025	-16.8070626	3428.640771	184.8776886	8128	8103
	-386.5624399	33.61412521	1764.741573	-352.9483147	8128	8103
	-252.1059391	302.5271269	67.22825042	-924.3884432	8129	8104
	50.42118781	571.4401285	-1462.214447	-2151.304013	8128	8103
	504.2118781	722.703692	-2033.654575	-3092.499519	8128	8102
	789.9319424	789.9319424	-1210.108507	-3916.045587	8127	8102
	756.3178172	638.6683789	1378.179134	-3176.534832	8127	8102
	621.8613163	403.3695025	5663.980098	-1731.127448	8128	8103
	436.9836277	-84.03531302	6672.403854	823.5460676	8128	8103
	151.2635634	-453.7906903	6974.930981	4100.923275	8128	8104
	168.070626	-268.9130017	3613.51846	4201.765651	8126	8103
	33.61412521	-235.2988765	-806.739005	2537.866453	8127	8103
	-151.2635634	-134.4565008	-4453.87159	537.8260033	8127	8103
	-319.3341895	-201.6847512	-4537.906903	33.61412521	8128	8104
	-302.5271269	-403.3695025	-4168.151526	336.1412521	8128	8103
	-319.3341895	-537.8260033	-3260.570145	857.1601928	8128	8103
	-403.3695025	-605.0542537	-3008.464206	941.1955058	8129	8103
	-453.7906903	-487.4048155	-3899.238524	436.9836277	8130	8103
	-302.5271269	-134.4565008	-3983.273837	-134.4565008	8129	8104
	-168.070626	84.03531302	-3613.51846	-302.5271269	8129	8103
	-151.2635634	50.42118781	-2588.287641	184.8776886	8129	8103
	-235.2988765	-16.8070626	-655.4754416	487.4048155	8130	8104
	-168.070626	100.8423756	2689.130017	336.1412521	8128	8104
	-100.8423756	33.61412521	4184.958588	369.7553773	8128	8104
	-67.22825042	100.8423756	991.6166936	-184.8776886	8127	8103
	67.22825042	235.2988765	-369.7553773	-806.739005	8127	8103
	470.5977529	302.5271269	-2235.339326	-873.9672554	8129	8104
	1210.108507	319.3341895	-3025.271269	-789.9319424	8127	8104
	1512.635634	487.4048155	-4184.958588	-1495.828572	8128	8103
	1327.757946	420.1765651	-2420.217015	-2050.461638	8128	8103
	823.5460676	168.070626	1294.143821	-1831.969824	8128	8103
	50.42118781	117.6494382	3327.798396	-890.774318	8129	8103
	-470.5977529	-84.03531302	3294.18427	840.3531302	8129	8103
	-840.3531302	-369.7553773	2437.024078	1563.056822	8129	8104
	-991.6166936	-336.1412521	2000.04045	1193.301445	8129	8103
	-941.1955058	-369.7553773	3226.95602	689.0895668	8128	8104
	-588.2471911	-504.2118781	3932.852649	151.2635634	8127	8103
	-100.8423756	-319.3341895	2890.814768	-1546.24976	8128	8104
	184.8776886	-218.4918139	1697.513323	-1714.320386	8127	8104
	151.2635634	-134.4565008	-201.6847512	-1008.423756	8128	8103
	201.6847512	67.22825042	-3714.360835	-268.9130017	8127	8103
	403.3695025	352.9483147	-3949.659712	151.2635634	8129	8104
	268.9130017	386.5624399	-4386.64334	840.3531302	8129	8104
	67.22825042	218.4918139	-4554.713966	403.3695025	8129	8103
	50.42118781	319.3341895	-3647.132585	-302.5271269	8128	8103
	84.03531302	386.5624399	352.9483147	-722.703692	8129	8103
	151.2635634	268.9130017	4168.151526	-705.8966294	8129	8103
	-134.4565008	50.42118781	4084.116213	235.2988765	8128	8103
	-521.0189407	0	3243.763083	840.3531302	8127	8103
	-857.1601928	-403.3695025	4521.09984	1798.355699	8127	8103
	-773.1248798	-319.3341895	2554.673516	1899.198074	8127	8103
	-621.8613163	-285.7200643	-705.8966294	1882.391012	8127	8103
	-285.7200643	-201.6847512	-5294.22472	924.3884432	8127	8103
	50.42118781	-134.4565008	-6168.191976	-403.3695025	8128	8104
	100.8423756	-319.3341895	-2554.673516	-621.8613163	8128	8103
	100.8423756	-302.5271269	453.7906903	-806.739005	8128	8104
	84.03531302	-84.03531302	-1361.372071	-1243.722633	8128	8103
	0	-117.6494382	739.5107546	-554.6330659	8128	8104
	-151.2635634	-218.4918139	3226.95602	352.9483147	8129	8104
	-268.9130017	-201.6847512	436.9836277	487.4048155	8128	8104
	-252.1059391	-50.42118781	168.070626	285.7200643	8128	8103
	16.8070626	-33.61412521	554.6330659	890.774318	8129	8103
	0	84.03531302	1008.423756	941.1955058	8130	8104
	0	16.8070626	941.1955058	352.9483147	8128	8103
	100.8423756	134.4565008	974.809631	-352.9483147	8128	8103
	84.03531302	100.8423756	991.6166936	-470.5977529	8128	8103
	134.4565008	33.61412521	2151.304013	-235.2988765	8127	8103
	84.03531302	16.8070626	3310.991333	-252.1059391	8128	8103
	84.03531302	67.22825042	2336.181702	-605.0542537	8127	8103
	168.070626	100.8423756	218.4918139	-789.9319424	8128	8103
	571.4401285	0	-705.8966294	-100.8423756	8127	8103
	907.5813806	100.8423756	-1327.757946	-605.0542537	8129	8104
	907.5813806	201.6847512	-2857.200643	-1647.092135	8129	8103
	873.9672554	268.9130017	-3462.254896	-2806.779455	8128	8103
	487.4048155	134.4565008	-773.1248798	-2336.181702	8128	8102
	84.03531302	168.070626	521.0189407	-1294.143821	8129	8104
	-117.6494382	67.22825042	773.1248798	-16.8070626	8128	8103
	-487.4048155	-420.1765651	-50.42118781	1327.757946	8128	8103
	-521.0189407	-386.5624399	-470.5977529	1630.285073	8128	8103
	-537.8260033	-386.5624399	1092.459069	1243.722633	8128	8103
	-386.5624399	-235.2988765	-436.9836277	369.7553773	8128	8103
	-235.2988765	-134.4565008	1445.407384	521.0189407	8128	8102
	-184.8776886	-134.4565008	2100.882825	958.0025684	8128	8103
	117.6494382	134.4565008	-974.809631	252.1059391	8128	8103
	235.2988765	252.1059391	-3848.817336	-773.1248798	8128	8103
	453.7906903	369.7553773	-4184.958588	-2033.654575	8126	8102
	756.3178172	504.2118781	-4420.257465	-1294.143821	8127	8103
	487.4048155	537.8260033	-6269.034351	-33.61412521	8128	8103
	-84.03531302	319.3341895	-3832.010274	1042.037881	8128	8103
	-655.4754416	-302.5271269	3714.360835	1966.426325	8128	8103
	-1092.459069	-554.6330659	6016.928412	2789.972392	8128	8103
	-1226.91557	-806.739005	4437.064527	2638.708829	8128	8103
	-1260.529695	-941.1955058	3176.534832	1764.741573	8128	8104
	-1075.652007	-789.9319424	319.3341895	621.8613163	8128	8103
	-638.6683789	-487.4048155	-1126.073194	-151.2635634	8128	8103
	-235.2988765	-285.7200643	-1949.619262	-352.9483147	8128	8103
	100.8423756	-100.8423756	-1932.812199	-537.8260033	8128	8103
	134.4565008	-16.8070626	-773.1248798	-621.8613163	8129	8103
	100.8423756	-16.8070626	-773.1248798	-789.9319424	8129	8104
	184.8776886	67.22825042	-605.0542537	-1159.68732	8128	8104
	252.1059391	117.6494382	-386.5624399	-1109.266132	8128	8103
	453.7906903	319.3341895	33.61412521	-1462.214447	8128	8103
	621.8613163	453.7906903	2336.181702	-1529.442697	8127	8103
	773.1248798	588.2471911	3109.306582	-2151.304013	8126	8103
	1092.459069	638.6683789	621.8613163	-1596.670947	8128	8104
	1092.459069	369.7553773	1126.073194	-84.03531302	8129	8104
	857.1601928	403.3695025	1663.899198	470.5977529	8128	8104
	420.1765651	-16.8070626	-352.9483147	1226.91557	8128	8103
	218.4918139	-100.8423756	1798.355699	2050.461638	8128	8103
	-151.2635634	-302.5271269	4941.276406	2672.322954	8130	8105
	-285.7200643	-168.070626	3781.589086	1731.127448	8129	8104
	-319.3341895	-386.5624399	1781.548636	1058.844944	8128	8103
	-403.3695025	-319.3341895	-470.5977529	-470.5977529	8129	8104
	-285.7200643	-302.5271269	-3865.624399	-184.8776886	8128	8103
	-252.1059391	-521.0189407	-4353.029214	487.4048155	8129	8104
	-252.1059391	-67.22825042	-4638.749279	-521.0189407	8128	8103
	-235.2988765	-84.03531302	-4084.116213	-571.4401285	8129	8104
	-67.22825042	-84.03531302	-2403.409952	-958.0025684	8128	8103
	-134.4565008	50.42118781	-974.809631	-1310.950883	8128	8103
	-487.4048155	16.8070626	2033.654575	-1092.459069	8129	8104
	-655.4754416	134.4565008	1647.092135	-184.8776886	8128	8104
	-739.5107546	134.4565008	1714.320386	1109.266132	8128	8103
	-571.4401285	-33.61412521	-756.3178172	1193.301445	8129	8103
	-504.2118781	-184.8776886	-1109.266132	689.0895668	8129	8104
	-470.5977529	-33.61412521	-974.809631	-218.4918139	8128	8103
	-537.8260033	33.61412521	-1529.442697	-705.8966294	8129	8103
	-285.7200643	252.1059391	-2638.708829	-1764.741573	8129	8103
	319.3341895	436.9836277	-3462.254896	-2571.480578	8128	8103
	823.5460676	470.5977529	-2739.551204	-2352.988765	8128	8103
	974.809631	453.7906903	-2823.586517	-1865.583949	8129	8104
	806.739005	470.5977529	-369.7553773	-1243.722633	8129	8104
	436.9836277	268.9130017	4184.958588	-50.42118781	8129	8104
	84.03531302	-336.1412521	5260.610595	1512.635634	8130	8104
	-134.4565008	-689.0895668	5630.365972	1764.741573	8129	8103
	-319.3341895	-705.8966294	3630.325522	907.5813806	8129	8104
	-386.5624399	-554.6330659	1310.950883	605.0542537	8128	8103
	-268.9130017	-201.6847512	-235.2988765	571.4401285	8128	8102
	-201.6847512	84.03531302	521.0189407	336.1412521	8128	8104
	16.8070626	151.2635634	470.5977529	1243.722633	8129	8103
	0	67.22825042	67.22825042	1495.828572	8126	8102
	-33.61412521	-84.03531302	974.809631	1210.108507	8127	8104
	-50.42118781	-302.5271269	2184.918139	1025.230819	8128	8103
	-67.22825042	-218.4918139	2958.043018	806.739005	8127	8103
	-50.42118781	-50.42118781	436.9836277	33.61412521	8128	8103
	16.8070626	-134.4565008	67.22825042	33.61412521	8127	8103
	100.8423756	-235.2988765	369.7553773	252.1059391	8128	8103
	117.6494382	-235.2988765	302.5271269	403.3695025	8128	8103
	117.6494382	-285.7200643	302.5271269	50.42118781	8128	8104
	151.2635634	-168.070626	1495.828572	-621.8613163	8128	8103
	285.7200643	33.61412521	2705.937079	-840.3531302	8128	8103
	352.9483147	201.6847512	1865.583949	-554.6330659	8129	8103
	252.1059391	252.1059391	991.6166936	-285.7200643	8128	8103
	218.4918139	369.7553773	-537.8260033	-840.3531302	8128	8103
	436.9836277	537.8260033	-2621.901766	-1277.336758	8129	8103
	638.6683789	537.8260033	-5008.504656	-739.5107546	8129	8103
	689.0895668	352.9483147	-5092.539969	-16.8070626	8127	8103
	621.8613163	84.03531302	-4874.048155	352.9483147	8128	8103
	151.2635634	-84.03531302	-4403.450402	453.7906903	8127	8103
	-319.3341895	-33.61412521	-4168.151526	907.5813806	8128	8102
	-689.0895668	-134.4565008	-4117.730338	1546.24976	8128	8103
	-1075.652007	-285.7200643	-3764.782023	823.5460676	8127	8103
	-1327.757946	-369.7553773	-521.0189407	-369.7553773	8126	8103
	-1344.565008	-403.3695025	2437.024078	-958.0025684	8128	8104
	-857.1601928	-184.8776886	2924.428893	-756.3178172	8128	8103
	-235.2988765	67.22825042	2605.094704	-756.3178172	8128	8103
	336.1412521	235.2988765	2235.339326	-638.6683789	8128	8103
	873.9672554	403.3695025	840.3531302	-554.6330659	8128	8102
	1008.423756	420.1765651	151.2635634	-1176.494382	8128	8103
	873.9672554	285.7200643	-739.5107546	-1361.372071	8128	8102
	605.0542537	67.22825042	-2991.657143	-1210.108507	8128	8104
	184.8776886	-84.03531302	-1865.583949	-588.2471911	8127	8103
	-252.1059391	-537.8260033	3916.045587	823.5460676	8127	8103
	-789.9319424	-890.774318	5832.050724	1663.899198	8127	8103
	-873.9672554	-739.5107546	5042.118781	722.703692	8128	8103
	-655.4754416	-369.7553773	1563.056822	-134.4565008	8127	8102
	-184.8776886	-184.8776886	-1327.757946	-857.1601928	8128	8103
	84.03531302	134.4565008	-2521.059391	-1815.162761	8129	8104
	319.3341895	352.9483147	-3445.447834	-1579.863885	8128	8103
	319.3341895	285.7200643	-2958.043018	-621.8613163	8127	8103
	420.1765651	319.3341895	-4638.749279	-285.7200643	8127	8104
	689.0895668	268.9130017	-3865.624399	-33.61412521	8128	8104
	1142.880257	319.3341895	-1344.565008	-1126.073194	8129	8103
	1058.844944	302.5271269	-3193.341895	-1932.812199	8129	8104
	655.4754416	218.4918139	-386.5624399	-2336.181702	8128	8102
	151.2635634	-84.03531302	6369.876727	1142.880257	8128	8103
	-605.0542537	-33.61412521	8403.531302	3832.010274	8129	8104
	-1361.372071	-487.4048155	6033.735475	6252.227289	8128	8103
	-1932.812199	-1126.073194	2554.673516	6806.860355	8129	8104
	-2067.2687	-1327.757946	1176.494382	4033.695025	8128	8104
	-1647.092135	-857.1601928	268.9130017	537.8260033	8129	8104
	-857.1601928	-386.5624399	-857.1601928	-453.7906903	8128	8104
	-235.2988765	-184.8776886	-2117.689888	-655.4754416	8128	8103
	218.4918139	-117.6494382	-3126.113644	-924.3884432	8128	8103
	605.0542537	67.22825042	-3764.782023	-1126.073194	8128	8103
	924.3884432	252.1059391	-2352.988765	-1411.793259	8128	8104
	1226.91557	336.1412521	773.1248798	-1647.092135	8127	8104
	1428.600321	537.8260033	3058.885394	-1596.670947	8127	8104
	1462.214447	487.4048155	3899.238524	-1411.793259	8126	8103
	1210.108507	369.7553773	3731.167898	-1495.828572	8128	8103
	840.3531302	201.6847512	3310.991333	-336.1412521	8126	8103
	134.4565008	420.1765651	1882.391012	-201.6847512	8128	8103
	-638.6683789	521.0189407	-521.0189407	487.4048155	8128	8103
	-1092.459069	168.070626	-285.7200643	1042.037881	8130	8104
	-1462.214447	-336.1412521	-806.739005	974.809631	8129	8103
	-1344.565008	-386.5624399	-2487.445265	403.3695025	8128	8103
	-974.809631	-168.070626	-1462.214447	-184.8776886	8128	8103
	-705.8966294	-184.8776886	-1294.143821	-184.8776886	8127	8103
	-436.9836277	-84.03531302	-285.7200643	-554.6330659	8128	8103
	-235.2988765	-336.1412521	-1193.301445	-487.4048155	8130	8104
	-235.2988765	-369.7553773	-1042.037881	-352.9483147	8128	8103
	33.61412521	-100.8423756	-789.9319424	-33.61412521	8128	8102
	319.3341895	50.42118781	-2437.024078	-504.2118781	8128	8103
	672.2825042	134.4565008	-3042.078331	-453.7906903	8127	8102
	756.3178172	218.4918139	-1394.986196	-890.774318	8128	8103
	722.703692	302.5271269	100.8423756	-1075.652007	8129	8103
	571.4401285	235.2988765	-1865.583949	-958.0025684	8129	8103
	453.7906903	0	-705.8966294	-537.8260033	8128	8103
	285.7200643	-184.8776886	319.3341895	184.8776886	8128	8103
	84.03531302	-84.03531302	3008.464206	-958.0025684	8127	8103
	235.2988765	50.42118781	100.8423756	-1916.005137	8127	8103
	268.9130017	302.5271269	1109.266132	-1277.336758	8127	8103
	386.5624399	268.9130017	1747.934511	218.4918139	8127	8103
	151.2635634	252.1059391	1058.844944	974.809631	8128	8103
	-100.8423756	117.6494382	2319.374639	1563.056822	8127	8103
	-352.9483147	50.42118781	2117.689888	2403.409952	8128	8103
	-605.0542537	-33.61412521	907.5813806	1630.285073	8128	8103
	-487.4048155	-84.03531302	369.7553773	974.809631	8128	8103
	-369.7553773	-84.03531302	537.8260033	436.9836277	8129	8103
	-151.2635634	16.8070626	-386.5624399	-218.4918139	8128	8103
	-50.42118781	-16.8070626	-1277.336758	-470.5977529	8130	8104
	151.2635634	-16.8070626	-3294.18427	-218.4918139	8128	8103
	285.7200643	-16.8070626	-3865.624399	16.8070626	8128	8103
	302.5271269	-50.42118781	-4000.0809	-134.4565008	8128	8102
	285.7200643	67.22825042	-1983.233387	-218.4918139	8128	8102
	252.1059391	-134.4565008	1378.179134	-16.8070626	8128	8103
	252.1059391	-50.42118781	-504.2118781	-319.3341895	8127	8103
	319.3341895	-84.03531302	-571.4401285	-403.3695025	8126	8103
	117.6494382	-218.4918139	756.3178172	-302.5271269	8126	8103
	-117.6494382	-319.3341895	2571.480578	0	8127	8104
	-235.2988765	-252.1059391	2100.882825	521.0189407	8127	8103
	-285.7200643	-403.3695025	1848.776886	857.1601928	8128	8103
	-403.3695025	-453.7906903	1260.529695	168.070626	8129	8104
	-252.1059391	-336.1412521	369.7553773	-386.5624399	8128	8103
	-184.8776886	-386.5624399	117.6494382	-100.8423756	8129	8103
	-285.7200643	-235.2988765	789.9319424	-151.2635634	8129	8104
	-218.4918139	16.8070626	2655.515891	-504.2118781	8127	8103
	-134.4565008	201.6847512	3832.010274	-504.2118781	8127	8103
	-50.42118781	134.4565008	4117.730338	-621.8613163	8127	8103
	268.9130017	117.6494382	1731.127448	-117.6494382	8126	8103
	621.8613163	252.1059391	-352.9483147	-100.8423756	8127	8103
	789.9319424	403.3695025	-1411.793259	-655.4754416	8127	8102
	756.3178172	436.9836277	-2252.146389	-1210.108507	8129	8103
	537.8260033	537.8260033	-2638.708829	-1529.442697	8129	8103
	117.6494382	252.1059391	-4184.958588	-1176.494382	8128	8103
	-184.8776886	-235.2988765	-4638.749279	773.1248798	8130	8104
	-605.0542537	-605.0542537	-1747.934511	2033.654575	8129	8104
	-873.9672554	-621.8613163	-2218.532264	1949.619262	8128	8103
	-890.774318	-521.0189407	-1394.986196	1680.70626	8129	8104
	-689.0895668	-453.7906903	-470.5977529	857.1601928	8128	8103
	-605.0542537	-252.1059391	1008.423756	302.5271269	8128	8103
	-470.5977529	-16.8070626	2084.075763	-218.4918139	8129	8103
	-134.4565008	168.070626	1798.355699	-605.0542537	8129	8104
	84.03531302	285.7200643	-672.2825042	-941.1955058	8128	8103
	319.3341895	386.5624399	-1882.391012	-1008.423756	8127	8103
	504.2118781	436.9836277	-2974.850081	-739.5107546	8127	8103
	504.2118781	369.7553773	-655.4754416	-302.5271269	8129	8104
	252.1059391	117.6494382	873.9672554	201.6847512	8128	8104
	50.42118781	252.1059391	1260.529695	-336.1412521	8127	8103
	-168.070626	100.8423756	3916.045587	-285.7200643	8127	8102
	-352.9483147	-33.61412521	-1546.24976	84.03531302	8128	8104
	-403.3695025	-100.8423756	-3495.869022	420.1765651	8129	8104
	-252.1059391	-84.03531302	-4151.344463	50.42118781	8129	8103
	-100.8423756	-285.7200643	-2134.496951	218.4918139	8129	8103
	84.03531302	-386.5624399	-1344.565008	235.2988765	8129	8104
	168.070626	-453.7906903	1193.301445	-235.2988765	8128	8104
	16.8070626	-302.5271269	2084.075763	-252.1059391	8127	8104
	-252.1059391	-369.7553773	5680.78716	890.774318	8128	8103
	-386.5624399	-319.3341895	6588.368541	1008.423756	8128	8103
	-336.1412521	-151.2635634	5378.260033	1310.950883	8128	8103
	-352.9483147	-100.8423756	5210.189407	1462.214447	8129	8103
	-134.4565008	33.61412521	3832.010274	151.2635634	8128	8103
	369.7553773	134.4565008	2437.024078	-386.5624399	8129	8103
	1042.037881	302.5271269	1243.722633	-739.5107546	8129	8103
	1613.47801	537.8260033	1176.494382	-773.1248798	8128	8103
	1714.320386	722.703692	-2840.39358	-756.3178172	8128	8103
	1142.880257	739.5107546	-4924.469343	-756.3178172	8128	8103
	218.4918139	168.070626	-3966.466775	722.703692	8128	8103
	-756.3178172	33.61412521	-655.4754416	739.5107546	8126	8103
	-1243.722633	-16.8070626	823.5460676	1058.844944	8128	8103
	-1361.372071	-369.7553773	-3764.782023	1949.619262	8127	8103
	-1428.600321	-705.8966294	-6218.613163	168.070626	8128	8103
	-1378.179134	-655.4754416	-5159.768219	-1344.565008	8128	8103
	-958.0025684	-504.2118781	-3563.097272	-1630.285073	8128	8103
	-151.2635634	-302.5271269	-2991.657143	-722.703692	8128	8103
	184.8776886	-168.070626	-1579.863885	117.6494382	8128	8103
	403.3695025	-84.03531302	1378.179134	-151.2635634	8127	8103
	487.4048155	-50.42118781	2033.654575	0	8127	8103
	420.1765651	184.8776886	3546.290209	-184.8776886	8128	8103
	268.9130017	252.1059391	4554.713966	-100.8423756	8128	8103
	0	100.8423756	3596.711397	-151.2635634	8128	8103
	-84.03531302	100.8423756	1596.670947	-50.42118781	8128	8103
	-201.6847512	33.61412521	-924.3884432	-252.1059391	8127	8103
	-235.2988765	67.22825042	-1983.233387	-386.5624399	8128	8103
	-84.03531302	100.8423756	-3697.553773	-588.2471911	8127	8103
	117.6494382	201.6847512	-3378.219583	-655.4754416	8129	8104
	369.7553773	235.2988765	-1663.899198	-974.809631	8128	8103
	554.6330659	218.4918139	-2554.673516	-1008.423756	8126	8103
	521.0189407	336.1412521	-1747.934511	-1042.037881	8127	8103
	285.7200643	201.6847512	1277.336758	-705.8966294	8128	8104
	33.61412521	-218.4918139	6184.999038	689.0895668	8128	8103
	-201.6847512	-386.5624399	5008.504656	1479.021509	8128	8103
	-285.7200643	-521.0189407	1613.47801	1798.355699	8128	8103
	-352.9483147	-588.2471911	1109.266132	1226.91557	8129	8104
	-268.9130017	-588.2471911	1394.986196	403.3695025	8128	8103
	-235.2988765	-319.3341895	2672.322954	-420.1765651	8129	8104
	100.8423756	-151.2635634	2756.358267	-655.4754416	8129	8104
	319.3341895	84.03531302	1075.652007	-1075.652007	8128	8103
	386.5624399	117.6494382	-1109.266132	-1310.950883	8128	8103
	336.1412521	134.4565008	-2336.181702	-1310.950883	8128	8103
	252.1059391	134.4565008	-2100.882825	-705.8966294	8128	8104
	168.070626	168.070626	-1529.442697	134.4565008	8127	8103
	67.22825042	302.5271269	-672.2825042	1159.68732	8128	8104
	-218.4918139	33.61412521	-1815.162761	1916.005137	8128	8104
	-336.1412521	-16.8070626	-907.5813806	1579.863885	8128	8103
	-134.4565008	151.2635634	-201.6847512	50.42118781	8129	8104
	369.7553773	369.7553773	-1058.844944	-1613.47801	8128	8103
	705.8966294	521.0189407	-823.5460676	-1949.619262	8128	8104
	722.703692	453.7906903	-789.9319424	-1747.934511	8129	8104
	621.8613163	235.2988765	-941.1955058	-958.0025684	8130	8104
	319.3341895	50.42118781	-1042.037881	504.2118781	8129	8104
	-184.8776886	-218.4918139	974.809631	2252.146389	8129	8104
	-403.3695025	-403.3695025	991.6166936	1596.670947	8128	8103
	-386.5624399	-453.7906903	-655.4754416	420.1765651	8128	8103
	-218.4918139	-436.9836277	-1327.757946	420.1765651	8128	8103
	168.070626	-285.7200643	-655.4754416	1109.266132	8128	8103
	352.9483147	-369.7553773	50.42118781	1378.179134	8129	8104
	252.1059391	-168.070626	2352.988765	-16.8070626	8128	8103
	-50.42118781	-50.42118781	5613.55891	-487.4048155	8129	8104
	-319.3341895	-117.6494382	6790.053292	-84.03531302	8129	8103
	-453.7906903	50.42118781	5848.857786	117.6494382	8129	8103
	-621.8613163	33.61412521	2958.043018	336.1412521	8128	8104
	-857.1601928	-67.22825042	2067.2687	16.8070626	8128	8103
	-672.2825042	67.22825042	-67.22825042	-705.8966294	8128	8103
	-134.4565008	100.8423756	-3344.605458	-924.3884432	8128	8103
	16.8070626	151.2635634	-5445.488284	-1630.285073	8129	8104
	-168.070626	84.03531302	-5142.961157	-1361.372071	8127	8103
	-184.8776886	-33.61412521	-5327.838845	0	8127	8103
	-369.7553773	-67.22825042	-5647.173035	873.9672554	8128	8104
	-218.4918139	-184.8776886	-3680.74671	873.9672554	8128	8103
	-84.03531302	-285.7200643	-3058.885394	1109.266132	8128	8103
	33.61412521	-168.070626	-2184.918139	184.8776886	8129	8103
	201.6847512	-67.22825042	-2218.532264	-1294.143821	8128	8103
	184.8776886	67.22825042	67.22825042	-1680.70626	8128	8103
	218.4918139	-84.03531302	3310.991333	-302.5271269	8128	8103
	67.22825042	-134.4565008	7798.477048	252.1059391	8130	8104
	-201.6847512	-184.8776886	10991.81894	873.9672554	8129	8103
	-352.9483147	0	6201.806101	907.5813806	8128	8103
	-403.3695025	-50.42118781	2453.83114	487.4048155	8129	8103
	-352.9483147	-84.03531302	-453.7906903	504.2118781	8128	8103
	-151.2635634	0	-1697.513323	605.0542537	8128	8103
	-84.03531302	84.03531302	-2605.094704	235.2988765	8127	8103
	-84.03531302	201.6847512	-3327.798396	-67.22825042	8127	8103
	184.8776886	420.1765651	-2184.918139	-1092.459069	8128	8103
	420.1765651	319.3341895	-1428.600321	-1495.828572	8128	8103
	521.0189407	302.5271269	-1176.494382	-2016.847512	8128	8103
	773.1248798	403.3695025	-2033.654575	-1479.021509	8128	8103
	806.739005	302.5271269	-2033.654575	-504.2118781	8128	8103
	453.7906903	-100.8423756	369.7553773	1193.301445	8128	8103
	0	-151.2635634	-537.8260033	1747.934511	8128	8103
	-67.22825042	-235.2988765	-1714.320386	1193.301445	8128	8102
	151.2635634	-352.9483147	-2941.235956	1445.407384	8128	8103
	352.9483147	-588.2471911	-3445.447834	1445.407384	8128	8103
	336.1412521	-436.9836277	-3327.798396	605.0542537	8128	8103
	84.03531302	-302.5271269	-2722.744142	-605.0542537	8129	8103
	-201.6847512	-184.8776886	1613.47801	-420.1765651	8128	8103
	-487.4048155	-201.6847512	8302.688926	-672.2825042	8127	8102
	-588.2471911	-168.070626	3731.167898	-974.809631	8128	8103
	-420.1765651	-67.22825042	-1344.565008	-924.3884432	8128	8103
	184.8776886	184.8776886	-3731.167898	-571.4401285	8127	8102
	521.0189407	201.6847512	-5260.610595	689.0895668	8128	8102
	369.7553773	100.8423756	-4823.626967	1596.670947	8128	8103
	-117.6494382	50.42118781	-1260.529695	1159.68732	8128	8103
	-487.4048155	-50.42118781	3479.061959	924.3884432	8127	8103
	-352.9483147	235.2988765	4016.887962	621.8613163	8127	8102
	-235.2988765	151.2635634	2016.847512	-386.5624399	8126	8103
	-588.2471911	-33.61412521	2521.059391	-1210.108507	8126	8104
	-840.3531302	16.8070626	4537.906903	-1680.70626	8127	8103
	-873.9672554	-33.61412521	5563.137722	-319.3341895	8127	8102
	-638.6683789	-50.42118781	3058.885394	890.774318	8128	8104
	-739.5107546	-436.9836277	1563.056822	1647.092135	8128	8103
	-789.9319424	-672.2825042	-1142.880257	1092.459069	8127	8103
	-554.6330659	-571.4401285	-1243.722633	-33.61412521	8128	8103
	-168.070626	-403.3695025	-739.5107546	-789.9319424	8127	8103
	84.03531302	-302.5271269	117.6494382	-1058.844944	8128	8103
	336.1412521	-168.070626	1092.459069	-1243.722633	8128	8102
	537.8260033	67.22825042	1075.652007	-1596.670947	8129	8103
	806.739005	235.2988765	1142.880257	-1899.198074	8129	8103
	958.0025684	386.5624399	1226.91557	-1831.969824	8128	8104
	739.5107546	420.1765651	924.3884432	-1411.793259	8129	8103
	453.7906903	252.1059391	-1462.214447	-50.42118781	8128	8103
	235.2988765	285.7200643	-840.3531302	974.809631	8128	8103
	50.42118781	621.8613163	-1865.583949	1361.372071	8128	8104
	-84.03531302	436.9836277	-1865.583949	1764.741573	8127	8103
	-218.4918139	50.42118781	-1529.442697	1563.056822	8127	8103
	-50.42118781	100.8423756	-1815.162761	-655.4754416	8129	8105
	252.1059391	285.7200643	-2756.358267	-1663.899198	8129	8103
	537.8260033	436.9836277	-3058.885394	-2000.04045	8129	8103
	924.3884432	487.4048155	-2134.496951	-2487.445265	8129	8103
	1142.880257	470.5977529	-218.4918139	-1378.179134	8128	8102
	1294.143821	319.3341895	857.1601928	1210.108507	8129	8104
	991.6166936	-168.070626	2874.007705	2184.918139	8129	8103
	386.5624399	-504.2118781	4823.626967	2252.146389	8129	8104
	-470.5977529	-571.4401285	4924.469343	2201.725201	8128	8104
	-1092.459069	-840.3531302	5193.382345	2874.007705	8128	8103
	-1327.757946	-638.6683789	-1647.092135	2252.146389	8128	8103
	-1445.407384	-621.8613163	-3714.360835	1512.635634	8127	8104
	-1445.407384	-638.6683789	-3916.045587	403.3695025	8128	8104
	-1176.494382	-571.4401285	-3630.325522	-689.0895668	8129	8104
	-605.0542537	-403.3695025	-3058.885394	-638.6683789	8128	8104
	-134.4565008	-235.2988765	-2840.39358	-1075.652007	8128	8104
	84.03531302	-16.8070626	-3210.148957	-1378.179134	8129	8104
	117.6494382	184.8776886	-3294.18427	-1394.986196	8128	8104
	336.1412521	436.9836277	-2386.60289	-1176.494382	8127	8103
	369.7553773	470.5977529	-2050.461638	-773.1248798	8128	8104
	285.7200643	352.9483147	1008.423756	-168.070626	8128	8103
	168.070626	369.7553773	4907.66228	235.2988765	8129	8104
	151.2635634	201.6847512	5680.78716	16.8070626	8130	8104
	117.6494382	151.2635634	2571.480578	-285.7200643	8128	8104
	117.6494382	151.2635634	504.2118781	-689.0895668	8129	8103
	134.4565008	-168.070626	1916.005137	-336.1412521	8128	8103
	201.6847512	-235.2988765	1932.812199	168.070626	8128	8104
	285.7200643	16.8070626	-319.3341895	302.5271269	8128	8103
	369.7553773	84.03531302	-50.42118781	184.8776886	8128	8103
	201.6847512	-218.4918139	2369.795827	436.9836277	8129	8104
	-33.61412521	-403.3695025	1714.320386	403.3695025	8129	8104
	-268.9130017	-453.7906903	-789.9319424	369.7553773	8128	8103
	-521.0189407	-605.0542537	-1176.494382	100.8423756	8128	8103
	-588.2471911	-621.8613163	-302.5271269	-504.2118781	8128	8104
	-336.1412521	-436.9836277	941.1955058	-403.3695025	8127	8103
	-67.22825042	-218.4918139	-470.5977529	-168.070626	8129	8104
	16.8070626	-84.03531302	1210.108507	-386.5624399	8127	8103
	84.03531302	0	1932.812199	-521.0189407	8127	8103
	117.6494382	117.6494382	1344.565008	-722.703692	8127	8103
	369.7553773	369.7553773	403.3695025	-689.0895668	8127	8103
	470.5977529	554.6330659	-823.5460676	-789.9319424	8128	8103
	487.4048155	655.4754416	-2789.972392	-1159.68732	8129	8103
	571.4401285	739.5107546	-3899.238524	-1764.741573	8128	8103
	470.5977529	621.8613163	-2302.567577	-2033.654575	8129	8103
	268.9130017	487.4048155	-436.9836277	-1916.005137	8128	8102
	16.8070626	420.1765651	403.3695025	-1025.230819	8128	8102
	-100.8423756	168.070626	84.03531302	0	8128	8103
	-168.070626	67.22825042	-453.7906903	1546.24976	8128	8103
	-168.070626	-16.8070626	-2605.094704	2621.901766	8128	8103
	33.61412521	-302.5271269	-1394.986196	2722.744142	8128	8103
	117.6494382	-521.0189407	285.7200643	1226.91557	8128	8103
	487.4048155	-285.7200643	420.1765651	-184.8776886	8128	8103
	352.9483147	33.61412521	504.2118781	-1058.844944	8128	8103
	151.2635634	16.8070626	2773.16533	-369.7553773	8127	8103
	-201.6847512	-319.3341895	4638.749279	1445.407384	8128	8103
	-672.2825042	-218.4918139	2016.847512	2554.673516	8128	8103
	-991.6166936	-336.1412521	-655.4754416	3983.273837	8127	8103
	-1193.301445	-689.0895668	-1983.233387	3142.920707	8128	8103
	-1008.423756	-420.1765651	-1243.722633	840.3531302	8128	8103
	-823.5460676	-201.6847512	436.9836277	-907.5813806	8128	8104
	-201.6847512	201.6847512	403.3695025	-1058.844944	8128	8103
	319.3341895	336.1412521	974.809631	-1042.037881	8128	8104
	521.0189407	268.9130017	100.8423756	-1042.037881	8128	8103
	605.0542537	100.8423756	-1462.214447	-991.6166936	8128	8104
	655.4754416	-67.22825042	-3916.045587	-1176.494382	8128	8103
	537.8260033	-218.4918139	-4235.379776	-806.739005	8127	8103
	168.070626	-403.3695025	-3596.711397	-369.7553773	8127	8103
	-184.8776886	-235.2988765	-235.2988765	-67.22825042	8127	8103
	-151.2635634	-117.6494382	2470.638203	1126.073194	8129	8104
	-33.61412521	-16.8070626	3378.219583	1462.214447	8129	8104
	-201.6847512	-50.42118781	3479.061959	1310.950883	8130	8104
	-436.9836277	-571.4401285	6117.770788	1042.037881	8129	8103
	-638.6683789	-487.4048155	5277.417658	-252.1059391	8130	8104
	-655.4754416	-352.9483147	2874.007705	-789.9319424	8129	8104
	-554.6330659	-285.7200643	-319.3341895	-420.1765651	8129	8104
	-453.7906903	-84.03531302	-3512.676084	-352.9483147	8129	8104
	-588.2471911	33.61412521	-5848.857786	-1327.757946	8128	8103
	-352.9483147	319.3341895	-7025.352168	-1529.442697	8128	8103
	235.2988765	436.9836277	-7680.82761	-1294.143821	8129	8104
	638.6683789	453.7906903	-6386.683789	-1142.880257	8129	8104
	806.739005	302.5271269	-4268.993901	-487.4048155	8128	8103
	638.6683789	117.6494382	453.7906903	-117.6494382	8128	8103
	218.4918139	117.6494382	5311.031783	369.7553773	8127	8103
	-100.8423756	302.5271269	3932.852649	605.0542537	8128	8103
	-386.5624399	-33.61412521	3277.377208	1344.565008	8128	8103
	-336.1412521	-235.2988765	3680.74671	689.0895668	8129	8103
	-235.2988765	-184.8776886	3310.991333	-504.2118781	8129	8103
	-168.070626	-168.070626	3126.113644	-1058.844944	8128	8103
	151.2635634	-100.8423756	2521.059391	-1008.423756	8127	8103
	302.5271269	-33.61412521	1210.108507	-1226.91557	8128	8103
	268.9130017	50.42118781	-33.61412521	-1058.844944	8127	8103
	168.070626	-33.61412521	-722.703692	-403.3695025	8128	8104
	16.8070626	-16.8070626	-991.6166936	151.2635634	8127	8103
	0	16.8070626	-840.3531302	336.1412521	8129	8104
	-84.03531302	50.42118781	-1260.529695	571.4401285	8128	8103
	-117.6494382	-50.42118781	588.2471911	655.4754416	8129	8103
	-84.03531302	0	537.8260033	84.03531302	8129	8104
	84.03531302	134.4565008	386.5624399	-285.7200643	8128	8103
	252.1059391	168.070626	924.3884432	-67.22825042	8128	8103
	336.1412521	218.4918139	-100.8423756	33.61412521	8128	8103
	487.4048155	268.9130017	-1075.652007	-67.22825042	8128	8103
	672.2825042	268.9130017	-2000.04045	-453.7906903	8128	8103
	638.6683789	67.22825042	-1142.880257	-672.2825042	8128	8103
	369.7553773	-67.22825042	1378.179134	-235.2988765	8129	8104
	184.8776886	-235.2988765	3327.798396	403.3695025	8128	8103
	-50.42118781	-50.42118781	756.3178172	1092.459069	8128	8103
	-235.2988765	134.4565008	117.6494382	1260.529695	8128	8103
	-235.2988765	33.61412521	521.0189407	1126.073194	8128	8104
	-386.5624399	-285.7200643	-336.1412521	991.6166936	8128	8103
	-268.9130017	-285.7200643	-1260.529695	184.8776886	8128	8103
	-33.61412521	-218.4918139	-941.1955058	235.2988765	8128	8103
	-50.42118781	-252.1059391	-1563.056822	470.5977529	8128	8103
	-151.2635634	-235.2988765	-2352.988765	470.5977529	8127	8102
	-285.7200643	-168.070626	-2504.252328	-218.4918139	8127	8103
	-201.6847512	0	-1176.494382	-1361.372071	8126	8102
	-67.22825042	84.03531302	-285.7200643	-1294.143821	8126	8103
	67.22825042	184.8776886	201.6847512	-521.0189407	8128	8103
	50.42118781	184.8776886	-168.070626	-16.8070626	8127	8102
	-33.61412521	84.03531302	1411.793259	369.7553773	8128	8103
	-168.070626	-33.61412521	3075.692457	1008.423756	8128	8102
	-336.1412521	-117.6494382	2403.409952	806.739005	8128	8103
	-386.5624399	-33.61412521	1294.143821	184.8776886	8128	8103
	-235.2988765	16.8070626	336.1412521	-168.070626	8128	8103
	-84.03531302	-67.22825042	-268.9130017	50.42118781	8127	8103
	-117.6494382	-168.070626	-2352.988765	-235.2988765	8128	8103
	-184.8776886	-67.22825042	-4016.887962	-890.774318	8127	8103
	-100.8423756	-33.61412521	-3512.676084	-1109.266132	8128	8103
	50.42118781	-50.42118781	-2991.657143	-789.9319424	8128	8103
	218.4918139	-201.6847512	-2050.461638	-285.7200643	8127	8103
	336.1412521	-218.4918139	-974.809631	672.2825042	8126	8102
	336.1412521	-16.8070626	1193.301445	739.5107546	8126	8103
	201.6847512	-67.22825042	3832.010274	722.703692	8127	8103
	67.22825042	-84.03531302	2352.988765	436.9836277	8129	8104
	100.8423756	-117.6494382	823.5460676	-168.070626	8129	8104
	16.8070626	-84.03531302	773.1248798	-352.9483147	8128	8103
	-84.03531302	33.61412521	571.4401285	-621.8613163	8128	8103
	-201.6847512	50.42118781	1126.073194	-605.0542537	8128	8103
	-285.7200643	67.22825042	1445.407384	-336.1412521	8129	8104
	-201.6847512	184.8776886	1932.812199	134.4565008	8128	8103
	-218.4918139	50.42118781	1596.670947	504.2118781	8129	8104
	-218.4918139	134.4565008	1159.68732	-117.6494382	8129	8104
	-134.4565008	235.2988765	924.3884432	-857.1601928	8129	8103
	117.6494382	386.5624399	-285.7200643	-1546.24976	8129	8104
	285.7200643	369.7553773	-1479.021509	-1378.179134	8128	8103
	352.9483147	218.4918139	-2386.60289	-873.9672554	8128	8103
	336.1412521	-84.03531302	-2302.567577	-67.22825042	8129	8104
	252.1059391	-151.2635634	-857.1601928	117.6494382	8128	8103
	302.5271269	-268.9130017	722.703692	857.1601928	8128	8104
	218.4918139	-453.7906903	33.61412521	756.3178172	8127	8103
	184.8776886	-336.1412521	-739.5107546	-84.03531302	8128	8103
	134.4565008	-268.9130017	991.6166936	-235.2988765	8128	8104
	235.2988765	-201.6847512	2201.725201	420.1765651	8128	8104
	235.2988765	84.03531302	1042.037881	252.1059391	8129	8103
	336.1412521	134.4565008	-184.8776886	-705.8966294	8128	8103
	537.8260033	151.2635634	369.7553773	-672.2825042	8127	8102
	453.7906903	151.2635634	-369.7553773	-184.8776886	8128	8104
	235.2988765	50.42118781	-1596.670947	537.8260033	8129	8103
	-285.7200643	-67.22825042	-1126.073194	974.809631	8128	8103
	-739.5107546	-117.6494382	-2016.847512	1075.652007	8129	8104
	-1210.108507	-67.22825042	-722.703692	2453.83114	8129	8104
	-1411.793259	-218.4918139	1781.548636	2840.39358	8129	8103
	-1378.179134	-235.2988765	2218.532264	1495.828572	8127	8102
	-941.1955058	-168.070626	1193.301445	436.9836277	8129	8103
	-571.4401285	-151.2635634	336.1412521	-117.6494382	8129	8103
	-336.1412521	-100.8423756	-621.8613163	-352.9483147	8129	8103
	-235.2988765	-134.4565008	-1630.285073	-537.8260033	8128	8103
	100.8423756	-84.03531302	-2504.252328	-588.2471911	8129	8104
	386.5624399	-33.61412521	-1579.863885	-605.0542537	8128	8103
	521.0189407	67.22825042	-420.1765651	-806.739005	8128	8104
	571.4401285	16.8070626	1243.722633	-1109.266132	8128	8103
	554.6330659	0	2504.252328	-1512.635634	8127	8103
	386.5624399	100.8423756	1731.127448	-1025.230819	8129	8104
	352.9483147	67.22825042	-403.3695025	-470.5977529	8129	8103
	386.5624399	134.4565008	-1479.021509	-537.8260033	8127	8103
	352.9483147	-50.42118781	-1210.108507	-554.6330659	8128	8103
	453.7906903	84.03531302	-2016.847512	-436.9836277	8128	8103
	504.2118781	218.4918139	-1058.844944	-1109.266132	8128	8103
	537.8260033	117.6494382	2739.551204	-823.5460676	8128	8103
	319.3341895	50.42118781	1596.670947	319.3341895	8128	8103
	-33.61412521	151.2635634	823.5460676	1126.073194	8128	8103
	-436.9836277	67.22825042	-2033.654575	2218.532264	8127	8103
	-890.774318	-285.7200643	-3327.798396	2437.024078	8128	8103
	-1092.459069	-386.5624399	-1647.092135	1512.635634	8129	8104
	-1193.301445	-268.9130017	-1479.021509	151.2635634	8128	8103
	-806.739005	-134.4565008	-1394.986196	100.8423756	8128	8103
	-470.5977529	-168.070626	-1159.68732	-117.6494382	8128	8103
	-218.4918139	-117.6494382	-773.1248798	-453.7906903	8127	8103
	100.8423756	-33.61412521	-722.703692	-504.2118781	8128	8103
	436.9836277	33.61412521	-873.9672554	-436.9836277	8127	8102
	571.4401285	67.22825042	117.6494382	-773.1248798	8129	8103
	705.8966294	16.8070626	33.61412521	-907.5813806	8128	8103
	705.8966294	0	151.2635634	-1075.652007	8129	8103
	537.8260033	-50.42118781	3142.920707	-1109.266132	8128	8103
	319.3341895	-352.9483147	5865.664849	-638.6683789	8127	8103
	-184.8776886	-638.6683789	5411.874158	-84.03531302	8127	8102
	-386.5624399	-100.8423756	2857.200643	-554.6330659	8127	8102
	-218.4918139	302.5271269	16.8070626	-1428.600321	8128	8103
	285.7200643	470.5977529	-1798.355699	-1613.47801	8128	8103
	453.7906903	504.2118781	-2134.496951	-2504.252328	8127	8103
	336.1412521	302.5271269	67.22825042	-1445.407384	8128	8103
	268.9130017	67.22825042	3210.148957	1159.68732	8128	8104
	168.070626	-33.61412521	2252.146389	2941.235956	8128	8103
	-100.8423756	-84.03531302	504.2118781	3563.097272	8128	8103
	-403.3695025	-235.2988765	0	2739.551204	8128	8103
	-588.2471911	-201.6847512	-67.22825042	672.2825042	8128	8103
	-504.2118781	-67.22825042	-1176.494382	-252.1059391	8128	8103
	-184.8776886	-67.22825042	-773.1248798	-352.9483147	8129	8104
	-168.070626	-252.1059391	-201.6847512	-252.1059391	8128	8103
	-151.2635634	-285.7200643	-352.9483147	201.6847512	8128	8103
	-218.4918139	-336.1412521	554.6330659	1210.108507	8128	8104
	-252.1059391	-369.7553773	1546.24976	1495.828572	8128	8103
	-268.9130017	-386.5624399	840.3531302	1176.494382	8128	8104
	-201.6847512	-302.5271269	184.8776886	-235.2988765	8128	8104
	100.8423756	134.4565008	-1579.863885	-1159.68732	8128	8103
	386.5624399	302.5271269	-1428.600321	-857.1601928	8128	8104
	605.0542537	302.5271269	-1428.600321	-638.6683789	8129	8104
	521.0189407	302.5271269	-2369.795827	-588.2471911	8128	8104
	252.1059391	386.5624399	-3092.499519	-420.1765651	8128	8103
	-100.8423756	420.1765651	-1932.812199	-621.8613163	8129	8104
	-151.2635634	184.8776886	-184.8776886	-235.2988765	8128	8102
	-285.7200643	-33.61412521	-3260.570145	-924.3884432	8128	8103
	-84.03531302	100.8423756	-3613.51846	-1916.005137	8127	8103
	319.3341895	151.2635634	-4033.695025	-2184.918139	8128	8103
	689.0895668	268.9130017	-3008.464206	-1327.757946	8127	8103
	773.1248798	386.5624399	-823.5460676	-621.8613163	8128	8103
	420.1765651	302.5271269	521.0189407	252.1059391	8128	8103
	-67.22825042	201.6847512	571.4401285	1378.179134	8128	8103
	-453.7906903	-151.2635634	3445.447834	2437.024078	8127	8103
	-789.9319424	-537.8260033	6420.297915	2537.866453	8127	8103
	-840.3531302	-773.1248798	5748.015411	2285.760514	8128	8103
	-739.5107546	-773.1248798	3445.447834	1378.179134	8128	8103
	-554.6330659	-739.5107546	2016.847512	420.1765651	8127	8103
	-436.9836277	-571.4401285	1344.565008	-302.5271269	8128	8103
	-252.1059391	-285.7200643	1865.583949	-571.4401285	8128	8103
	-84.03531302	-151.2635634	1731.127448	-420.1765651	8129	8104
	0	-134.4565008	504.2118781	218.4918139	8128	8103
	117.6494382	-16.8070626	-1394.986196	67.22825042	8129	8103
	184.8776886	151.2635634	-1714.320386	-403.3695025	8128	8103
	285.7200643	302.5271269	-1899.198074	-1210.108507	8128	8103
	268.9130017	336.1412521	-3075.692457	-1512.635634	8128	8103
	218.4918139	285.7200643	-1815.162761	-1916.005137	8128	8103
	100.8423756	336.1412521	-1109.266132	-1546.24976	8128	8103
	-84.03531302	470.5977529	-1176.494382	-840.3531302	8128	8103
	-168.070626	218.4918139	-436.9836277	235.2988765	8127	8102
	-117.6494382	-84.03531302	1327.757946	924.3884432	8128	8103
	16.8070626	-218.4918139	789.9319424	1462.214447	8129	8104
	201.6847512	-218.4918139	403.3695025	1546.24976	8127	8102
	252.1059391	-201.6847512	-168.070626	705.8966294	8128	8103
	-50.42118781	-168.070626	1008.423756	84.03531302	8128	8103
	-201.6847512	-235.2988765	2016.847512	268.9130017	8128	8102
	-268.9130017	-218.4918139	722.703692	-33.61412521	8126	8102
	-268.9130017	33.61412521	-117.6494382	-336.1412521	8128	8103
	-352.9483147	-16.8070626	436.9836277	-605.0542537	8126	8103
	-369.7553773	-168.070626	134.4565008	-789.9319424	8127	8103
	-285.7200643	-302.5271269	-134.4565008	-386.5624399	8128	8103
	50.42118781	-50.42118781	554.6330659	-16.8070626	8127	8103
	151.2635634	117.6494382	1445.407384	67.22825042	8128	8103
	184.8776886	134.4565008	1529.442697	-352.9483147	8129	8103
	201.6847512	201.6847512	1109.266132	-840.3531302	8129	8103
	218.4918139	252.1059391	100.8423756	-672.2825042	8128	8103
	201.6847512	319.3341895	-890.774318	-319.3341895	8127	8103
	134.4565008	336.1412521	-1848.776886	33.61412521	8127	8103
	117.6494382	268.9130017	-2252.146389	470.5977529	8128	8103
	151.2635634	168.070626	-2874.007705	420.1765651	8128	8103
	302.5271269	33.61412521	-3445.447834	201.6847512	8129	8104
	436.9836277	-151.2635634	-3327.798396	184.8776886	8128	8103
	655.4754416	-184.8776886	-2773.16533	-302.5271269	8128	8103
	672.2825042	-168.070626	-1462.214447	-1042.037881	8128	8104
	588.2471911	-218.4918139	-1042.037881	-1529.442697	8127	8103
	302.5271269	-352.9483147	1092.459069	-722.703692	8128	8103
	-50.42118781	-319.3341895	2420.217015	218.4918139	8128	8103
	-403.3695025	-336.1412521	1579.863885	1479.021509	8128	8103
	-672.2825042	-285.7200643	621.8613163	2016.847512	8128	8103
	-705.8966294	-336.1412521	184.8776886	2000.04045	8129	8103
	-823.5460676	-201.6847512	554.6330659	1025.230819	8127	8102
	-571.4401285	-84.03531302	1798.355699	521.0189407	8129	8104
	-369.7553773	67.22825042	2504.252328	-50.42118781	8128	8104
	-134.4565008	168.070626	2184.918139	-117.6494382	8128	8103
	168.070626	235.2988765	1243.722633	-84.03531302	8127	8103
	470.5977529	369.7553773	-907.5813806	268.9130017	8128	8104
	722.703692	470.5977529	-3025.271269	268.9130017	8128	8103
	722.703692	537.8260033	-3815.203211	-571.4401285	8128	8104
	605.0542537	369.7553773	-2722.744142	-1445.407384	8129	8104
	302.5271269	352.9483147	-2184.918139	-1781.548636	8128	8104
	151.2635634	67.22825042	-1159.68732	-1479.021509	8128	8104
	-268.9130017	-134.4565008	1058.844944	-789.9319424	8128	8103
	-739.5107546	-285.7200643	4000.0809	-806.739005	8128	8104
	-941.1955058	-420.1765651	1932.812199	-67.22825042	8128	8104
	-806.739005	-487.4048155	1428.600321	655.4754416	8129	8104
	-571.4401285	-655.4754416	1428.600321	1764.741573	8128	8103
	-571.4401285	-689.0895668	1361.372071	1647.092135	8128	8103
	-420.1765651	-554.6330659	924.3884432	386.5624399	8129	8104
	-84.03531302	-168.070626	588.2471911	-672.2825042	8128	8103
	369.7553773	33.61412521	1344.565008	-537.8260033	8129	8103
	571.4401285	100.8423756	-134.4565008	-285.7200643	8128	8103
	487.4048155	134.4565008	-1193.301445	537.8260033	8129	8103
	201.6847512	33.61412521	-218.4918139	672.2825042	8128	8103
	0	-168.070626	-756.3178172	739.5107546	8128	8103
	-285.7200643	-50.42118781	-1663.899198	739.5107546	8127	8102
	-588.2471911	201.6847512	-1563.056822	-184.8776886	8128	8103
	-537.8260033	268.9130017	-84.03531302	-873.9672554	8129	8103
	-352.9483147	252.1059391	-319.3341895	-806.739005	8128	8103
	-268.9130017	302.5271269	-873.9672554	-655.4754416	8128	8104
	-117.6494382	386.5624399	-168.070626	-588.2471911	8128	8103
	16.8070626	201.6847512	941.1955058	-50.42118781	8128	8103
	84.03531302	-16.8070626	1126.073194	268.9130017	8128	8103
	134.4565008	-67.22825042	2437.024078	50.42118781	8128	8104
	252.1059391	33.61412521	3512.676084	-336.1412521	8129	8104
	369.7553773	67.22825042	2789.972392	-235.2988765	8128	8103
	319.3341895	-134.4565008	1630.285073	-268.9130017	8128	8103
	184.8776886	-201.6847512	1210.108507	-369.7553773	8128	8103
	184.8776886	-285.7200643	1512.635634	-184.8776886	8128	8103
	168.070626	-403.3695025	-100.8423756	302.5271269	8128	8103
	16.8070626	-369.7553773	-1680.70626	840.3531302	8128	8103
	-184.8776886	-352.9483147	-2336.181702	1075.652007	8128	8103
	0	-134.4565008	-3613.51846	84.03531302	8128	8103
	151.2635634	33.61412521	-3747.974961	-403.3695025	8128	8103
	252.1059391	184.8776886	-4336.222152	-436.9836277	8128	8103
	470.5977529	302.5271269	-4823.626967	-605.0542537	8128	8103
	571.4401285	285.7200643	-4790.012842	-873.9672554	8129	8103
	655.4754416	302.5271269	-3479.061959	-571.4401285	8127	8103
	689.0895668	302.5271269	100.8423756	-1109.266132	8127	8103
	436.9836277	386.5624399	823.5460676	-1731.127448	8128	8103
	285.7200643	268.9130017	756.3178172	-403.3695025	8128	8103
	16.8070626	117.6494382	2336.181702	672.2825042	8128	8103
	-369.7553773	-151.2635634	3697.553773	1630.285073	8128	8103
	-705.8966294	-252.1059391	4554.713966	1798.355699	8128	8103
	-739.5107546	-252.1059391	3747.974961	1764.741573	8127	8103
	-554.6330659	-235.2988765	1966.426325	1462.214447	8128	8103
	-302.5271269	-453.7906903	1411.793259	890.774318	8128	8103
	-319.3341895	-487.4048155	1781.548636	-319.3341895	8128	8103
	-403.3695025	-336.1412521	1798.355699	-1176.494382	8128	8104
	-184.8776886	-134.4565008	-1512.635634	-1042.037881	8129	8103
	0	-117.6494382	-1394.986196	-319.3341895	8128	8103
	16.8070626	-117.6494382	-369.7553773	134.4565008	8129	8104
	16.8070626	-84.03531302	-1680.70626	-235.2988765	8129	8104
	84.03531302	-84.03531302	-1563.056822	-890.774318	8128	8103
	16.8070626	-134.4565008	-941.1955058	-689.0895668	8129	8104
	0	16.8070626	605.0542537	-605.0542537	8129	8104
	-67.22825042	168.070626	-319.3341895	352.9483147	8129	8104
	-151.2635634	84.03531302	-941.1955058	386.5624399	8128	8103
	16.8070626	16.8070626	-84.03531302	336.1412521	8129	8104
	67.22825042	50.42118781	1226.91557	33.61412521	8128	8103
	-50.42118781	100.8423756	2437.024078	487.4048155	8129	8104
	-84.03531302	50.42118781	2437.024078	773.1248798	8128	8103
	16.8070626	201.6847512	1747.934511	588.2471911	8129	8104
	16.8070626	84.03531302	-134.4565008	504.2118781	8128	8104
	-67.22825042	16.8070626	-689.0895668	-302.5271269	8128	8104
	-84.03531302	67.22825042	-1798.355699	-789.9319424	8129	8104
	-134.4565008	16.8070626	-2823.586517	-605.0542537	8129	8103
	-100.8423756	-67.22825042	-1949.619262	-84.03531302	8128	8104
	-50.42118781	-117.6494382	-319.3341895	-151.2635634	8130	8104
	16.8070626	-235.2988765	-50.42118781	470.5977529	8128	8103
	117.6494382	-252.1059391	-1277.336758	285.7200643	8128	8103
	184.8776886	-134.4565008	-1025.230819	-302.5271269	8129	8104
	285.7200643	84.03531302	-739.5107546	-1142.880257	8127	8103
	336.1412521	168.070626	336.1412521	-806.739005	8129	8104
	201.6847512	67.22825042	1294.143821	-974.809631	8129	8103
	84.03531302	117.6494382	1327.757946	-1226.91557	8128	8103
	-302.5271269	-67.22825042	2100.882825	-1042.037881	8128	8103
	-470.5977529	-134.4565008	1714.320386	-84.03531302	8128	8103
	-470.5977529	-117.6494382	235.2988765	1428.600321	8128	8103
	-386.5624399	117.6494382	-705.8966294	1781.548636	8128	8103
	-336.1412521	168.070626	-1058.844944	1647.092135	8128	8103
	-117.6494382	285.7200643	-689.0895668	958.0025684	8127	8102
	-50.42118781	117.6494382	1025.230819	436.9836277	8128	8103
	-67.22825042	50.42118781	588.2471911	201.6847512	8128	8103
	84.03531302	84.03531302	1596.670947	16.8070626	8129	8104
	184.8776886	-33.61412521	991.6166936	235.2988765	8128	8103
	235.2988765	-218.4918139	756.3178172	655.4754416	8128	8103
	235.2988765	-453.7906903	201.6847512	352.9483147	8128	8104
	33.61412521	-436.9836277	-436.9836277	-571.4401285	8128	8103
	16.8070626	-319.3341895	-1428.600321	-958.0025684	8128	8103
	100.8423756	-100.8423756	-1630.285073	-991.6166936	8128	8102
	100.8423756	0	-201.6847512	-504.2118781	8128	8103
	-33.61412521	0	-33.61412521	-117.6494382	8128	8103
	-67.22825042	-134.4565008	-252.1059391	420.1765651	8128	8103
	-151.2635634	-16.8070626	-302.5271269	50.42118781	8127	8103
	-50.42118781	151.2635634	-958.0025684	-588.2471911	8128	8103
	151.2635634	268.9130017	-1663.899198	-1176.494382	8128	8103
	504.2118781	436.9836277	-3294.18427	-1058.844944	8128	8104
	605.0542537	420.1765651	-4016.887962	-218.4918139	8128	8103
	605.0542537	420.1765651	-3613.51846	-100.8423756	8129	8103
	420.1765651	336.1412521	-2302.567577	-117.6494382	8128	8103
	168.070626	0	1512.635634	436.9836277	8127	8103
	-168.070626	-168.070626	1932.812199	890.774318	8128	8102
	-470.5977529	-436.9836277	789.9319424	1042.037881	8127	8102
	-756.3178172	-521.0189407	924.3884432	655.4754416	8127	8103
	-789.9319424	-386.5624399	1411.793259	100.8423756	8127	8102
	-705.8966294	-134.4565008	1714.320386	-453.7906903	8128	8103
	-184.8776886	-235.2988765	689.0895668	-487.4048155	8127	8103
	117.6494382	16.8070626	-33.61412521	-1445.407384	8128	8103
	352.9483147	184.8776886	252.1059391	-1411.793259	8128	8103
	369.7553773	168.070626	571.4401285	-571.4401285	8129	8103
	201.6847512	-84.03531302	1109.266132	537.8260033	8129	8103
	84.03531302	-336.1412521	2352.988765	1512.635634	8128	8103
	-134.4565008	-134.4565008	3546.290209	1579.863885	8128	8103
	-235.2988765	0	1159.68732	907.5813806	8128	8103
	-117.6494382	67.22825042	-470.5977529	-201.6847512	8129	8105
	33.61412521	168.070626	453.7906903	-521.0189407	8128	8104
	67.22825042	218.4918139	1697.513323	117.6494382	8128	8104
	184.8776886	252.1059391	2235.339326	336.1412521	8128	8103
	0	319.3341895	1344.565008	285.7200643	8129	8104
	-33.61412521	151.2635634	-907.5813806	-33.61412521	8129	8104
	-67.22825042	-84.03531302	-2067.2687	-235.2988765	8128	8103
	-67.22825042	-117.6494382	-3479.061959	218.4918139	8128	8104
	-84.03531302	-84.03531302	-4100.923275	453.7906903	8128	8103
	-302.5271269	-487.4048155	-2504.252328	890.774318	8128	8104
	-436.9836277	-739.5107546	420.1765651	605.0542537	8128	8103
	-436.9836277	-638.6683789	1630.285073	-134.4565008	8128	8103
	-319.3341895	-453.7906903	-134.4565008	-352.9483147	8127	8103
	-184.8776886	-268.9130017	-857.1601928	-638.6683789	8128	8104
	33.61412521	-50.42118781	-369.7553773	-991.6166936	8128	8104
	302.5271269	100.8423756	1781.548636	-1815.162761	8128	8103
	789.9319424	302.5271269	1932.812199	-1882.391012	8128	8103
	1058.844944	453.7906903	1529.442697	-1445.407384	8128	8103
	941.1955058	453.7906903	2638.708829	-1462.214447	8129	8104
	605.0542537	352.9483147	1747.934511	-722.703692	8129	8104
	168.070626	302.5271269	1327.757946	1176.494382	8129	8104
	-184.8776886	218.4918139	806.739005	2756.358267	8128	8104
	-369.7553773	33.61412521	235.2988765	2386.60289	8128	8103
	-672.2825042	-117.6494382	1613.47801	991.6166936	8130	8104
	-873.9672554	-117.6494382	-621.8613163	-705.8966294	8128	8103
	-621.8613163	-67.22825042	-672.2825042	-1042.037881	8128	8103
	-352.9483147	-100.8423756	-840.3531302	-521.0189407	8128	8103
	-285.7200643	-134.4565008	-2420.217015	-100.8423756	8128	8103
	-184.8776886	-84.03531302	-4571.521028	-84.03531302	8128	8102
	50.42118781	-67.22825042	-5731.208348	470.5977529	8127	8103
	352.9483147	67.22825042	-5193.382345	50.42118781	8127	8103
	420.1765651	50.42118781	-4033.695025	-470.5977529	8128	8103
	436.9836277	-16.8070626	-2268.953452	-1378.179134	8128	8103
	268.9130017	-100.8423756	588.2471911	-1798.355699	8128	8103
	100.8423756	-151.2635634	4319.415089	-1462.214447	8128	8103
	33.61412521	-285.7200643	4084.116213	-84.03531302	8129	8103
	-184.8776886	-268.9130017	1159.68732	1479.021509	8127	8103
	-252.1059391	-117.6494382	-319.3341895	2134.496951	8128	8103
	-369.7553773	-134.4565008	453.7906903	1714.320386	8128	8103
	-285.7200643	33.61412521	319.3341895	1344.565008	8128	8103
	-117.6494382	100.8423756	-302.5271269	571.4401285	8129	8103
	0	151.2635634	-84.03531302	-50.42118781	8128	8103
	-50.42118781	-16.8070626	117.6494382	-386.5624399	8128	8103
	0	67.22825042	-33.61412521	-857.1601928	8128	8104
	84.03531302	0	1831.969824	-705.8966294	8127	8103
	-50.42118781	-50.42118781	2352.988765	-218.4918139	8128	8103
	-67.22825042	-50.42118781	1445.407384	756.3178172	8127	8102
	33.61412521	84.03531302	-50.42118781	1008.423756	8129	8104
	100.8423756	50.42118781	386.5624399	1075.652007	8127	8102
	67.22825042	-84.03531302	672.2825042	588.2471911	8128	8103
	-151.2635634	-268.9130017	184.8776886	100.8423756	8127	8103
	-235.2988765	-201.6847512	554.6330659	-386.5624399	8127	8103
	-84.03531302	-67.22825042	722.703692	-1512.635634	8128	8104
	100.8423756	16.8070626	470.5977529	-1563.056822	8128	8103
	168.070626	168.070626	-369.7553773	-1899.198074	8128	8103
	201.6847512	168.070626	-974.809631	-1663.899198	8129	8104
	33.61412521	168.070626	-1983.233387	0	8128	8103
	-84.03531302	235.2988765	521.0189407	1294.143821	8127	8103
	-184.8776886	-100.8423756	1983.233387	2252.146389	8129	8104
	-319.3341895	-184.8776886	1226.91557	1428.600321	8127	8102
	-84.03531302	-16.8070626	-2134.496951	420.1765651	8127	8103
	117.6494382	100.8423756	-2168.111076	-840.3531302	8128	8103
	436.9836277	252.1059391	-1983.233387	-2000.04045	8128	8103
	537.8260033	201.6847512	-1193.301445	-2000.04045	8128	8103
	302.5271269	201.6847512	-151.2635634	-1512.635634	8128	8103
	117.6494382	33.61412521	1008.423756	184.8776886	8128	8103
	-33.61412521	-16.8070626	403.3695025	1680.70626	8128	8103
	-218.4918139	-151.2635634	420.1765651	2050.461638	8128	8103
	-420.1765651	-638.6683789	4050.502088	2067.2687	8128	8103
	-537.8260033	-554.6330659	2352.988765	655.4754416	8128	8103
	-336.1412521	-319.3341895	1243.722633	-336.1412521	8128	8103
	-134.4565008	-134.4565008	1680.70626	-689.0895668	8128	8103
	50.42118781	-84.03531302	2168.111076	-420.1765651	8127	8103
	33.61412521	-134.4565008	1512.635634	-168.070626	8128	8104
	33.61412521	-33.61412521	-1462.214447	-789.9319424	8128	8104
	470.5977529	201.6847512	-2672.322954	-1344.565008	8128	8104
	857.1601928	352.9483147	-3378.219583	-1983.233387	8128	8104
	873.9672554	436.9836277	-4806.819905	-2386.60289	8128	8104
	554.6330659	336.1412521	-6201.806101	-2554.673516	8129	8104
	84.03531302	151.2635634	-4403.450402	-1512.635634	8129	8103
	-302.5271269	-134.4565008	941.1955058	739.5107546	8128	8103
	-571.4401285	-588.2471911	2588.287641	3848.817336	8128	8103
	-420.1765651	-319.3341895	1025.230819	3630.325522	8129	8104
	-168.070626	-168.070626	1781.548636	2184.918139	8128	8103
	50.42118781	0	4588.328091	184.8776886	8129	8104
	218.4918139	134.4565008	4437.064527	-268.9130017	8129	8104
	218.4918139	184.8776886	2218.532264	-537.8260033	8129	8104
	-67.22825042	-33.61412521	-638.6683789	-302.5271269	8128	8103
	-621.8613163	-201.6847512	-1949.619262	756.3178172	8128	8103
	-1042.037881	-403.3695025	-2705.937079	1663.899198	8129	8104
	-1226.91557	-672.2825042	-3243.763083	2084.075763	8129	8104
	-1210.108507	-689.0895668	-1428.600321	1058.844944	8128	8104
	-907.5813806	-571.4401285	-487.4048155	470.5977529	8128	8103
	-571.4401285	-319.3341895	-773.1248798	-218.4918139	8128	8104
	-252.1059391	-84.03531302	-1193.301445	-605.0542537	8128	8103
	33.61412521	0	-857.1601928	-638.6683789	8128	8103
	184.8776886	-16.8070626	-117.6494382	-571.4401285	8129	8103
	319.3341895	117.6494382	958.0025684	-470.5977529	8128	8103
	453.7906903	285.7200643	1310.950883	-705.8966294	8129	8104
	672.2825042	336.1412521	1445.407384	-958.0025684	8129	8103
	806.739005	386.5624399	638.6683789	-1579.863885	8127	8102
	974.809631	605.0542537	-689.0895668	-2084.075763	8129	8103
	924.3884432	638.6683789	-873.9672554	-1815.162761	8128	8103
	655.4754416	403.3695025	1277.336758	-705.8966294	8128	8103
	184.8776886	554.6330659	3815.203211	-33.61412521	8128	8102
	-50.42118781	386.5624399	2168.111076	907.5813806	8128	8102
	-319.3341895	-100.8423756	-184.8776886	1983.233387	8128	8102
	-588.2471911	-436.9836277	-504.2118781	1445.407384	8128	8103
	-554.6330659	-369.7553773	-907.5813806	285.7200643	8128	8103
	-403.3695025	-201.6847512	-100.8423756	-352.9483147	8127	8104
	-151.2635634	-235.2988765	1495.828572	-168.070626	8127	8103
	50.42118781	-218.4918139	1428.600321	-352.9483147	8128	8103
	201.6847512	-218.4918139	638.6683789	-689.0895668	8128	8103
	571.4401285	-134.4565008	-504.2118781	-1176.494382	8128	8103
	823.5460676	16.8070626	-1075.652007	-1563.056822	8128	8103
	823.5460676	134.4565008	-1529.442697	-1529.442697	8128	8103
	605.0542537	218.4918139	-1663.899198	-1260.529695	8129	8104
	285.7200643	84.03531302	-2016.847512	-487.4048155	8129	8104
	-100.8423756	-50.42118781	-1495.828572	588.2471911	8128	8103
	-235.2988765	0	-756.3178172	1226.91557	8129	8104
	-453.7906903	117.6494382	-991.6166936	1445.407384	8129	8104
	-588.2471911	-33.61412521	-1226.91557	1529.442697	8128	8103
	-487.4048155	16.8070626	-1563.056822	168.070626	8128	8103
	16.8070626	235.2988765	201.6847512	-117.6494382	8128	8104
	235.2988765	201.6847512	1243.722633	-151.2635634	8129	8103
	218.4918139	33.61412521	1714.320386	-16.8070626	8128	8103
	67.22825042	-50.42118781	1949.619262	-319.3341895	8129	8104
	-168.070626	-235.2988765	2874.007705	-537.8260033	8129	8104
	-420.1765651	-453.7906903	3899.238524	621.8613163	8128	8103
	-453.7906903	-252.1059391	689.0895668	1159.68732	8128	8103
	-470.5977529	-134.4565008	-2537.866453	1327.757946	8128	8103
	-638.6683789	-285.7200643	-2907.62183	806.739005	8128	8103
	-453.7906903	-252.1059391	-2420.217015	840.3531302	8128	8103
	-100.8423756	-235.2988765	-2672.322954	336.1412521	8128	8103
	285.7200643	16.8070626	-2874.007705	-974.809631	8128	8103
	453.7906903	67.22825042	-1109.266132	-2033.654575	8129	8104
	722.703692	100.8423756	-991.6166936	-1983.233387	8128	8103
	571.4401285	201.6847512	-2941.235956	-1747.934511	8128	8104
	285.7200643	252.1059391	-1428.600321	-336.1412521	8128	8102
	-218.4918139	-201.6847512	4840.43403	2319.374639	8128	8103
	-521.0189407	-453.7906903	6706.017979	2941.235956	8128	8103
	-773.1248798	-453.7906903	6403.490852	2756.358267	8127	8103
	-857.1601928	-352.9483147	5092.539969	1193.301445	8128	8104
	-621.8613163	33.61412521	1378.179134	0	8128	8103
	-302.5271269	218.4918139	-605.0542537	-554.6330659	8129	8104
	84.03531302	336.1412521	-1613.47801	-672.2825042	8127	8103
	151.2635634	369.7553773	-2420.217015	-823.5460676	8127	8103
	33.61412521	201.6847512	-991.6166936	-571.4401285	8128	8103
	84.03531302	0	117.6494382	-252.1059391	8128	8103
	117.6494382	-16.8070626	235.2988765	-739.5107546	8129	8103
	33.61412521	-134.4565008	16.8070626	-991.6166936	8128	8103
	-235.2988765	-100.8423756	268.9130017	-1193.301445	8129	8104
	-302.5271269	-184.8776886	1327.757946	-504.2118781	8128	8104
	67.22825042	-134.4565008	184.8776886	218.4918139	8128	8103
	201.6847512	-100.8423756	-1932.812199	504.2118781	8128	8102
	201.6847512	-184.8776886	-1882.391012	840.3531302	8128	8103
	100.8423756	-218.4918139	-420.1765651	453.7906903	8128	8103
	235.2988765	-50.42118781	-789.9319424	-252.1059391	8128	8103
	420.1765651	0	-1546.24976	-521.0189407	8127	8103
	336.1412521	-50.42118781	-1025.230819	-403.3695025	8127	8103
	235.2988765	16.8070626	-453.7906903	-504.2118781	8127	8103
	201.6847512	168.070626	-302.5271269	-689.0895668	8128	8102
	151.2635634	151.2635634	-168.070626	-386.5624399	8128	8103
	16.8070626	50.42118781	991.6166936	33.61412521	8128	8103
	16.8070626	16.8070626	2437.024078	-67.22825042	8127	8102
	33.61412521	0	1512.635634	50.42118781	8128	8103
	67.22825042	-50.42118781	773.1248798	336.1412521	8128	8104
	352.9483147	117.6494382	268.9130017	184.8776886	8128	8103
	689.0895668	252.1059391	-655.4754416	-1025.230819	8128	8104
	857.1601928	201.6847512	-621.8613163	-1260.529695	8129	8104
	722.703692	168.070626	-1848.776886	-1243.722633	8128	8103
	588.2471911	201.6847512	100.8423756	-1428.600321	8128	8103
	268.9130017	67.22825042	-554.6330659	-924.3884432	8128	8103
	-33.61412521	-218.4918139	722.703692	-117.6494382	8129	8104
	-453.7906903	-285.7200643	1764.741573	537.8260033	8129	8103
	-806.739005	-100.8423756	33.61412521	336.1412521	8128	8103
	-739.5107546	-268.9130017	-806.739005	1226.91557	8128	8104
	-873.9672554	-420.1765651	-2487.445265	1546.24976	8128	8103
	-1210.108507	-487.4048155	-2857.200643	2033.654575	8127	8102
	-1310.950883	-655.4754416	-605.0542537	2201.725201	8128	8103
	-1008.423756	-252.1059391	-2235.339326	1882.391012	8128	8104
	-521.0189407	16.8070626	-3344.605458	739.5107546	8127	8103
	67.22825042	235.2988765	-2352.988765	-33.61412521	8128	8103
	403.3695025	336.1412521	-1327.757946	-218.4918139	8129	8103
	420.1765651	386.5624399	302.5271269	-588.2471911	8129	8103
	504.2118781	487.4048155	1798.355699	-974.809631	8127	8103
	621.8613163	436.9836277	1126.073194	-1193.301445	8127	8103
	487.4048155	285.7200643	1075.652007	-571.4401285	8128	8103
	218.4918139	-235.2988765	756.3178172	-50.42118781	8128	8103
	-218.4918139	-655.4754416	1462.214447	-369.7553773	8127	8103
	-638.6683789	-823.5460676	1579.863885	-151.2635634	8128	8103
	-739.5107546	-504.2118781	722.703692	369.7553773	8127	8103
	-504.2118781	-319.3341895	1142.880257	1243.722633	8128	8103
	-420.1765651	-252.1059391	857.1601928	907.5813806	8127	8103
	-285.7200643	-84.03531302	-268.9130017	470.5977529	8128	8103
	117.6494382	84.03531302	537.8260033	100.8423756	8128	8103
	436.9836277	84.03531302	1126.073194	-67.22825042	8127	8103
	554.6330659	201.6847512	2823.586517	-352.9483147	8128	8103
	605.0542537	184.8776886	4386.64334	-689.0895668	8128	8102
	436.9836277	168.070626	4353.029214	-789.9319424	8128	8103
	268.9130017	168.070626	4168.151526	-689.0895668	8128	8103
	184.8776886	235.2988765	151.2635634	-958.0025684	8128	8103
	319.3341895	252.1059391	-3546.290209	-504.2118781	8128	8103
	436.9836277	302.5271269	-4638.749279	-184.8776886	8128	8103
	201.6847512	201.6847512	-5260.610595	-319.3341895	8128	8103
	16.8070626	218.4918139	-4016.887962	-756.3178172	8128	8103
	117.6494382	285.7200643	-2235.339326	-1075.652007	8127	8102
	184.8776886	33.61412521	-2504.252328	-571.4401285	8128	8102
	151.2635634	-151.2635634	-1260.529695	-420.1765651	8129	8103
	-201.6847512	-285.7200643	-50.42118781	-319.3341895	8128	8102
	-470.5977529	-386.5624399	-1546.24976	-436.9836277	8128	8103
	-436.9836277	-453.7906903	268.9130017	-67.22825042	8127	8102
	-100.8423756	-336.1412521	-1966.426325	369.7553773	8128	8104
	420.1765651	33.61412521	-621.8613163	0	8128	8103
	487.4048155	252.1059391	-1210.108507	50.42118781	8129	8104
	537.8260033	386.5624399	-1579.863885	117.6494382	8128	8103
	117.6494382	134.4565008	2285.760514	941.1955058	8129	8103
	-369.7553773	-117.6494382	4907.66228	1949.619262	8128	8103
	-789.9319424	-285.7200643	6974.930981	2453.83114	8129	8103
	-941.1955058	-403.3695025	3092.499519	2739.551204	8129	8103
	-1109.266132	-420.1765651	2420.217015	1344.565008	8128	8103
	-722.703692	-319.3341895	2218.532264	403.3695025	8129	8103
	-319.3341895	-252.1059391	1445.407384	-184.8776886	8129	8103
	134.4565008	-151.2635634	605.0542537	-67.22825042	8129	8104
	285.7200643	-33.61412521	-436.9836277	-386.5624399	8129	8103
	285.7200643	134.4565008	-2067.2687	-840.3531302	8129	8103
	201.6847512	201.6847512	-2705.937079	-974.809631	8129	8104
	134.4565008	100.8423756	-2403.409952	-1142.880257	8129	8103
	50.42118781	168.070626	-2537.866453	-1647.092135	8128	8103
	16.8070626	184.8776886	-2588.287641	-1882.391012	8129	8104
	84.03531302	134.4565008	-1932.812199	-1126.073194	8128	8103
	168.070626	134.4565008	-420.1765651	-605.0542537	8129	8104
	0	84.03531302	1798.355699	134.4565008	8129	8103
	-168.070626	-134.4565008	3344.605458	1344.565008	8129	8104
	-50.42118781	-235.2988765	4218.572714	1747.934511	8128	8103
	16.8070626	-319.3341895	2941.235956	1193.301445	8128	8103
	84.03531302	-252.1059391	941.1955058	134.4565008	8129	8104
	369.7553773	-50.42118781	-1361.372071	-958.0025684	8129	8103
	420.1765651	84.03531302	-2168.111076	-1378.179134	8129	8103
	302.5271269	252.1059391	-1630.285073	-1243.722633	8128	8103
	184.8776886	319.3341895	-1697.513323	-756.3178172	8128	8104
	151.2635634	201.6847512	-1159.68732	235.2988765	8128	8104
	33.61412521	33.61412521	-806.739005	1025.230819	8128	8103
	16.8070626	-134.4565008	-369.7553773	1042.037881	8128	8104
	0	-268.9130017	-655.4754416	-285.7200643	8128	8103
	-33.61412521	-50.42118781	-1495.828572	-1983.233387	8128	8104
	-33.61412521	201.6847512	-1731.127448	-2403.409952	8127	8103
	-50.42118781	184.8776886	-1159.68732	-1445.407384	8128	8103
	-268.9130017	100.8423756	-168.070626	588.2471911	8129	8103
	-420.1765651	-50.42118781	-991.6166936	2134.496951	8128	8103
	-605.0542537	-235.2988765	-453.7906903	2638.708829	8128	8103
	-689.0895668	-537.8260033	1126.073194	1848.776886	8128	8103
	-571.4401285	-571.4401285	1142.880257	605.0542537	8128	8103
	-218.4918139	-302.5271269	941.1955058	201.6847512	8128	8103
	16.8070626	-117.6494382	941.1955058	-16.8070626	8128	8104
	201.6847512	-117.6494382	1226.91557	-252.1059391	8128	8103
	319.3341895	-84.03531302	1159.68732	-655.4754416	8128	8103
	521.0189407	117.6494382	50.42118781	-991.6166936	8127	8103
	739.5107546	235.2988765	-1411.793259	-1294.143821	8127	8103
	705.8966294	134.4565008	50.42118781	-1310.950883	8127	8103
	487.4048155	-16.8070626	689.0895668	-991.6166936	8127	8103
	268.9130017	235.2988765	-487.4048155	-252.1059391	8128	8103
	16.8070626	302.5271269	-1327.757946	739.5107546	8128	8103
	-201.6847512	151.2635634	1916.005137	1798.355699	8127	8103
	-487.4048155	50.42118781	2874.007705	1663.899198	8127	8103
	-537.8260033	117.6494382	2050.461638	991.6166936	8128	8103
	-352.9483147	117.6494382	487.4048155	-33.61412521	8128	8103
	16.8070626	50.42118781	-168.070626	-386.5624399	8129	8103
	352.9483147	33.61412521	-487.4048155	-218.4918139	8129	8104
	521.0189407	-33.61412521	-1697.513323	-487.4048155	8129	8104
	521.0189407	-117.6494382	-2369.795827	-857.1601928	8127	8103
	319.3341895	-100.8423756	-3176.534832	-605.0542537	8127	8103
	168.070626	-168.070626	-2521.059391	369.7553773	8127	8103
	-151.2635634	-218.4918139	605.0542537	1294.143821	8128	8103
	-605.0542537	-235.2988765	2369.795827	1445.407384	8128	8102
	-873.9672554	-554.6330659	806.739005	789.9319424	8128	8103
	-924.3884432	-369.7553773	-453.7906903	-470.5977529	8128	8103
	-621.8613163	-67.22825042	-336.1412521	-1058.844944	8128	8103
	-285.7200643	134.4565008	-857.1601928	-1159.68732	8128	8103
	-168.070626	117.6494382	-789.9319424	-1042.037881	8128	8103
	-184.8776886	201.6847512	-739.5107546	-1294.143821	8128	8104
	-151.2635634	336.1412521	-151.2635634	-1630.285073	8128	8103
	33.61412521	302.5271269	2151.304013	-1008.423756	8129	8104
	100.8423756	184.8776886	4588.328091	-16.8070626	8128	8104
	151.2635634	67.22825042	3361.412521	840.3531302	8129	8104
	235.2988765	67.22825042	1697.513323	1495.828572	8128	8103
	218.4918139	-50.42118781	1361.372071	2285.760514	8130	8104
	100.8423756	-235.2988765	-470.5977529	1815.162761	8129	8103
	134.4565008	-218.4918139	-1025.230819	268.9130017	8128	8103
	100.8423756	-100.8423756	-1495.828572	-689.0895668	8129	8103
	319.3341895	16.8070626	-2134.496951	-1260.529695	8129	8103
	672.2825042	50.42118781	-2470.638203	-1142.880257	8128	8103
	689.0895668	-50.42118781	-3613.51846	-1008.423756	8128	8102
	386.5624399	-168.070626	-3025.271269	-638.6683789	8128	8103
	16.8070626	-168.070626	-352.9483147	-33.61412521	8128	8103
	-151.2635634	-252.1059391	3563.097272	823.5460676	8129	8104
	-403.3695025	-319.3341895	1126.073194	1546.24976	8128	8103
	-453.7906903	-151.2635634	537.8260033	958.0025684	8128	8102
	-504.2118781	-201.6847512	1394.986196	521.0189407	8129	8103
	-487.4048155	-16.8070626	1630.285073	-403.3695025	8128	8103
	-117.6494382	268.9130017	-1479.021509	-958.0025684	8128	8103
	386.5624399	352.9483147	-3462.254896	-924.3884432	8128	8103
	403.3695025	184.8776886	-5344.645908	-1058.844944	8128	8102
	252.1059391	268.9130017	-5882.471911	-2168.111076	8128	8103
	134.4565008	336.1412521	-6252.227289	-2184.918139	8128	8102
	-67.22825042	285.7200643	-2823.586517	-857.1601928	8128	8103
	-302.5271269	-252.1059391	1176.494382	1663.899198	8128	8103
	-521.0189407	-504.2118781	5294.22472	2857.200643	8129	8104
	-655.4754416	-302.5271269	11848.97914	2084.075763	8128	8103
	-621.8613163	16.8070626	4756.398717	655.4754416	8129	8103
	302.5271269	84.03531302	1226.91557	50.42118781	8128	8103
	1092.459069	117.6494382	1344.565008	0	8128	8103
	1126.073194	-16.8070626	907.5813806	16.8070626	8127	8103
	823.5460676	-117.6494382	2487.445265	-33.61412521	8127	8102
	588.2471911	-67.22825042	5697.594223	201.6847512	8127	8103
	100.8423756	-168.070626	6621.982666	722.703692	8128	8103
	-268.9130017	-201.6847512	2605.094704	806.739005	8128	8103
	-739.5107546	-319.3341895	-168.070626	907.5813806	8128	8103
	-1092.459069	-252.1059391	-1462.214447	-67.22825042	8127	8102
	-924.3884432	-285.7200643	-2067.2687	-67.22825042	8128	8103
	-689.0895668	-117.6494382	-2874.007705	151.2635634	8128	8103
	-605.0542537	-117.6494382	-2823.586517	117.6494382	8128	8103
	-621.8613163	-100.8423756	-1949.619262	-386.5624399	8128	8103
	-336.1412521	33.61412521	-2504.252328	-537.8260033	8127	8102
	-50.42118781	-33.61412521	-3445.447834	-352.9483147	8128	8103
	84.03531302	-50.42118781	-5193.382345	-470.5977529	8128	8102
	201.6847512	50.42118781	-5781.629536	-689.0895668	8129	8103
	252.1059391	134.4565008	-4924.469343	-1277.336758	8129	8104
	487.4048155	268.9130017	-3596.711397	-1445.407384	8128	8104
	537.8260033	352.9483147	-2033.654575	-1226.91557	8128	8103
	352.9483147	134.4565008	958.0025684	-420.1765651	8129	8103
	50.42118781	16.8070626	4806.819905	319.3341895	8129	8104
	-168.070626	-50.42118781	5243.803532	1210.108507	8128	8104
	-319.3341895	-302.5271269	2420.217015	1126.073194	8128	8104
	-504.2118781	-369.7553773	1344.565008	621.8613163	8128	8103
	-386.5624399	-134.4565008	756.3178172	134.4565008	8128	8104
	-50.42118781	33.61412521	336.1412521	-16.8070626	8128	8104
	336.1412521	117.6494382	117.6494382	-84.03531302	8128	8103
	470.5977529	168.070626	-67.22825042	-302.5271269	8128	8103
	453.7906903	184.8776886	302.5271269	-386.5624399	8127	8103
	252.1059391	201.6847512	1226.91557	-386.5624399	8129	8104
	252.1059391	252.1059391	2403.409952	-588.2471911	8128	8104
	302.5271269	319.3341895	1781.548636	-621.8613163	8127	8103
	252.1059391	201.6847512	1294.143821	-117.6494382	8128	8104
	134.4565008	-117.6494382	1899.198074	84.03531302	8128	8103
	0	-184.8776886	1882.391012	-504.2118781	8128	8104
	50.42118781	-134.4565008	-268.9130017	-873.9672554	8127	8103
	100.8423756	16.8070626	-1445.407384	-1680.70626	8129	8104
	302.5271269	151.2635634	-3109.306582	-1966.426325	8128	8103
	235.2988765	134.4565008	-5428.681221	-1479.021509	8128	8102
	-50.42118781	33.61412521	-4353.029214	-789.9319424	8129	8104
	-151.2635634	-184.8776886	-2369.795827	907.5813806	8128	8103
	-134.4565008	-184.8776886	521.0189407	2033.654575	8128	8103
	-252.1059391	-369.7553773	2252.146389	3226.95602	8128	8103
	-537.8260033	-756.3178172	605.0542537	3647.132585	8128	8103
	-672.2825042	-739.5107546	-302.5271269	2537.866453	8128	8104
	-689.0895668	-554.6330659	-554.6330659	1764.741573	8128	8103
	-453.7906903	-252.1059391	-705.8966294	1092.459069	8128	8103
	-319.3341895	-168.070626	-789.9319424	218.4918139	8128	8104
	-151.2635634	117.6494382	-537.8260033	-436.9836277	8128	8103
	50.42118781	268.9130017	151.2635634	-941.1955058	8128	8103
	235.2988765	369.7553773	436.9836277	-1277.336758	8128	8103
	605.0542537	487.4048155	-134.4565008	-1579.863885	8128	8103
	873.9672554	621.8613163	436.9836277	-1932.812199	8128	8103
	1109.266132	638.6683789	470.5977529	-1731.127448	8128	8103
	1042.037881	537.8260033	-117.6494382	-1142.880257	8129	8103
	689.0895668	285.7200643	-168.070626	-33.61412521	8129	8103
	336.1412521	151.2635634	1512.635634	605.0542537	8129	8103
	-184.8776886	-117.6494382	3512.676084	1092.459069	8128	8103
	-638.6683789	-403.3695025	1831.969824	1512.635634	8128	8103
	-873.9672554	-588.2471911	1109.266132	1109.266132	8128	8103
	-907.5813806	-605.0542537	2252.146389	100.8423756	8128	8103
	-689.0895668	-521.0189407	2487.445265	-504.2118781	8128	8102
	-588.2471911	-403.3695025	840.3531302	-672.2825042	8128	8104
	-201.6847512	-218.4918139	-117.6494382	-1075.652007	8127	8103
	134.4565008	16.8070626	-991.6166936	-1781.548636	8128	8103
	403.3695025	50.42118781	-1747.934511	-890.774318	8129	8103
	487.4048155	84.03531302	-1647.092135	-151.2635634	8128	8103
	336.1412521	67.22825042	-2302.567577	352.9483147	8128	8102
	302.5271269	100.8423756	-1445.407384	1411.793259	8128	8103
	67.22825042	-50.42118781	1865.583949	2302.567577	8127	8102
	-336.1412521	-252.1059391	1159.68732	1613.47801	8128	8103
	-453.7906903	-84.03531302	-420.1765651	268.9130017	8127	8102
	-689.0895668	67.22825042	-1462.214447	-504.2118781	8128	8103
	-689.0895668	100.8423756	-1445.407384	-504.2118781	8128	8102
	-638.6683789	67.22825042	-504.2118781	-806.739005	8128	8103
	-621.8613163	16.8070626	806.739005	-672.2825042	8128	8103
	-487.4048155	-67.22825042	2067.2687	-571.4401285	8128	8103
	-218.4918139	67.22825042	2655.515891	-857.1601928	8128	8103
	33.61412521	84.03531302	1546.24976	-1142.880257	8128	8103
	319.3341895	33.61412521	-117.6494382	-1042.037881	8127	8103
	504.2118781	33.61412521	-1193.301445	-1176.494382	8128	8104
	588.2471911	84.03531302	-1798.355699	-1075.652007	8127	8103
	705.8966294	134.4565008	-2689.130017	-773.1248798	8127	8102
	655.4754416	-67.22825042	-1781.548636	-201.6847512	8128	8103
	403.3695025	-84.03531302	-588.2471911	285.7200643	8129	8104
	252.1059391	-16.8070626	302.5271269	-252.1059391	8128	8103
	-84.03531302	-151.2635634	-218.4918139	840.3531302	8129	8103
	-168.070626	-218.4918139	-1378.179134	1630.285073	8128	8103
	-285.7200643	-252.1059391	-3058.885394	1613.47801	8128	8103
	-252.1059391	-319.3341895	-3479.061959	873.9672554	8127	8103
	-100.8423756	-285.7200643	-756.3178172	-504.2118781	8128	8103
	386.5624399	201.6847512	-1798.355699	-1361.372071	8128	8104
	756.3178172	470.5977529	-2689.130017	-2352.988765	8128	8103
	739.5107546	386.5624399	1495.828572	-2084.075763	8128	8103
	403.3695025	201.6847512	4252.186839	-67.22825042	8128	8102
	-50.42118781	268.9130017	3058.885394	1932.812199	8127	8103
	-302.5271269	-33.61412521	2151.304013	3327.798396	8127	8102
	-487.4048155	-453.7906903	1445.407384	3495.869022	8127	8103
	-857.1601928	-571.4401285	487.4048155	2352.988765	8128	8103
	-1042.037881	-487.4048155	168.070626	958.0025684	8128	8103
	-958.0025684	-352.9483147	201.6847512	50.42118781	8127	8102
	-554.6330659	-235.2988765	-168.070626	-100.8423756	8128	8104
	-151.2635634	-117.6494382	-302.5271269	-436.9836277	8128	8103
	252.1059391	-16.8070626	-50.42118781	-722.703692	8129	8103
	487.4048155	50.42118781	-235.2988765	-1042.037881	8129	8104
	571.4401285	201.6847512	-789.9319424	-1546.24976	8128	8103
	487.4048155	252.1059391	-84.03531302	-1495.828572	8129	8104
	403.3695025	168.070626	2134.496951	-722.703692	8129	8104
	268.9130017	235.2988765	1899.198074	436.9836277	8128	8103
	84.03531302	268.9130017	789.9319424	1092.459069	8128	8102
	-168.070626	184.8776886	605.0542537	1025.230819	8129	8104
	-319.3341895	151.2635634	151.2635634	571.4401285	8128	8103
	-252.1059391	252.1059391	-588.2471911	-184.8776886	8129	8103
	-117.6494382	268.9130017	-1126.073194	-907.5813806	8129	8103
	134.4565008	218.4918139	-403.3695025	-1142.880257	8129	8103
	201.6847512	67.22825042	1075.652007	-1277.336758	8128	8103
	50.42118781	-201.6847512	2605.094704	-1092.459069	8128	8103
	16.8070626	-352.9483147	3210.148957	-117.6494382	8128	8103
	84.03531302	-386.5624399	386.5624399	823.5460676	8128	8103
	84.03531302	-554.6330659	84.03531302	1546.24976	8128	8102
	67.22825042	-521.0189407	-1075.652007	773.1248798	8129	8103
	268.9130017	-285.7200643	-3294.18427	-1109.266132	8128	8103
	319.3341895	0	-2521.059391	-1882.391012	8128	8102
	386.5624399	100.8423756	-184.8776886	-941.1955058	8127	8102
	184.8776886	16.8070626	2033.654575	-16.8070626	8129	8103
	-235.2988765	-100.8423756	3714.360835	638.6683789	8128	8104
	-689.0895668	-151.2635634	2689.130017	1445.407384	8128	8103
	-958.0025684	-319.3341895	1394.986196	1563.056822	8127	8104
	-823.5460676	-252.1059391	-151.2635634	218.4918139	8127	8103
	-504.2118781	-16.8070626	-168.070626	-621.8613163	8128	8103
	16.8070626	302.5271269	-1546.24976	-756.3178172	8128	8103
	369.7553773	420.1765651	-3327.798396	-739.5107546	8128	8104
	436.9836277	588.2471911	-3512.676084	-1277.336758	8127	8103
	184.8776886	336.1412521	-2537.866453	-672.2825042	8127	8103
	184.8776886	235.2988765	-252.1059391	-33.61412521	8127	8103
	16.8070626	168.070626	-2117.689888	756.3178172	8129	8104
	-84.03531302	16.8070626	-2672.322954	1008.423756	8129	8103
	-218.4918139	-252.1059391	-2857.200643	722.703692	8129	8104
	0	-50.42118781	-2100.882825	-789.9319424	8128	8103
	571.4401285	117.6494382	352.9483147	-1294.143821	8128	8103
	689.0895668	-100.8423756	537.8260033	-1159.68732	8128	8104
	655.4754416	-369.7553773	705.8966294	-151.2635634	8129	8104
	571.4401285	-285.7200643	1613.47801	655.4754416	8128	8103
	302.5271269	-100.8423756	2336.181702	941.1955058	8128	8103
	-218.4918139	-521.0189407	756.3178172	2336.181702	8128	8104
	-873.9672554	-722.703692	621.8613163	2033.654575	8128	8103
	-1294.143821	-436.9836277	504.2118781	689.0895668	8128	8104
	-1327.757946	-184.8776886	1277.336758	-235.2988765	8128	8103
	-823.5460676	16.8070626	722.703692	0	8128	8103
	-571.4401285	33.61412521	-941.1955058	168.070626	8128	8104
	-386.5624399	117.6494382	-1647.092135	-285.7200643	8128	8103
	0	252.1059391	-1764.741573	-672.2825042	8128	8103
	218.4918139	352.9483147	-1394.986196	-1159.68732	8127	8103
	386.5624399	470.5977529	-1378.179134	-1294.143821	8128	8103
	537.8260033	352.9483147	369.7553773	-1176.494382	8127	8103
	739.5107546	386.5624399	1596.670947	-974.809631	8128	8103
	739.5107546	420.1765651	117.6494382	-336.1412521	8128	8103
	638.6683789	184.8776886	773.1248798	655.4754416	8129	8103
	386.5624399	33.61412521	1831.969824	756.3178172	8128	8103
	33.61412521	-151.2635634	2403.409952	588.2471911	8128	8103
	-184.8776886	-100.8423756	1159.68732	487.4048155	8129	8104
	-252.1059391	-403.3695025	1058.844944	1294.143821	8129	8103
	-470.5977529	-554.6330659	1008.423756	924.3884432	8128	8104
	-571.4401285	-369.7553773	-1277.336758	-100.8423756	8128	8103
	-302.5271269	-151.2635634	-2302.567577	-621.8613163	8128	8103
	84.03531302	-16.8070626	-3243.763083	-840.3531302	8129	8103
	403.3695025	134.4565008	-4201.765651	-1075.652007	8128	8103
	722.703692	268.9130017	-2857.200643	-873.9672554	8128	8103
	689.0895668	134.4565008	-168.070626	-672.2825042	8128	8103
	487.4048155	-67.22825042	2789.972392	-655.4754416	8128	8103
	319.3341895	-100.8423756	4941.276406	-571.4401285	8128	8102
	-33.61412521	-134.4565008	4487.485715	-16.8070626	8128	8103
	-302.5271269	16.8070626	3025.271269	453.7906903	8127	8103
	-386.5624399	-16.8070626	-302.5271269	1479.021509	8128	8104
	-420.1765651	-84.03531302	-806.739005	1042.037881	8128	8103
	-521.0189407	-252.1059391	-352.9483147	638.6683789	8128	8103
	-571.4401285	-252.1059391	168.070626	16.8070626	8129	8103
	-420.1765651	-285.7200643	991.6166936	-386.5624399	8129	8104
	-168.070626	-218.4918139	-235.2988765	-487.4048155	8128	8103
	100.8423756	67.22825042	-453.7906903	-840.3531302	8128	8103
	218.4918139	134.4565008	50.42118781	-605.0542537	8129	8104
	201.6847512	67.22825042	-1462.214447	-1042.037881	8129	8103
	218.4918139	134.4565008	-1277.336758	-1075.652007	8128	8103
	201.6847512	336.1412521	-571.4401285	-1428.600321	8129	8103
	151.2635634	302.5271269	-521.0189407	-1546.24976	8129	8104
	33.61412521	151.2635634	705.8966294	-756.3178172	8129	8103
	-134.4565008	134.4565008	2941.235956	302.5271269	8129	8104
	16.8070626	134.4565008	3613.51846	2084.075763	8129	8104
	84.03531302	100.8423756	2974.850081	2504.252328	8129	8103
	0	-336.1412521	1663.899198	2336.181702	8127	8103
	-151.2635634	-655.4754416	470.5977529	1680.70626	8128	8103
	-184.8776886	-420.1765651	-873.9672554	672.2825042	8127	8103
	117.6494382	-151.2635634	-638.6683789	-369.7553773	8127	8103
	638.6683789	134.4565008	-2386.60289	-857.1601928	8128	8103
	739.5107546	302.5271269	-2184.918139	-1680.70626	8128	8103
	521.0189407	403.3695025	-2420.217015	-2386.60289	8129	8104
	218.4918139	218.4918139	-2386.60289	-1126.073194	8129	8103
	-201.6847512	50.42118781	-2218.532264	789.9319424	8128	8103
	-369.7553773	-386.5624399	-2890.814768	2571.480578	8129	8103
	-890.774318	-941.1955058	-2369.795827	2453.83114	8128	8103
	-907.5813806	-739.5107546	-621.8613163	537.8260033	8128	8103
	-638.6683789	-588.2471911	722.703692	-823.5460676	8129	8104
	-352.9483147	-285.7200643	1344.565008	-890.774318	8129	8103
	-218.4918139	-151.2635634	1613.47801	-184.8776886	8128	8103
	-168.070626	-33.61412521	991.6166936	117.6494382	8129	8103
	67.22825042	-16.8070626	-134.4565008	773.1248798	8129	8104
	0	-84.03531302	-907.5813806	1176.494382	8128	8104
	-201.6847512	-100.8423756	-1025.230819	705.8966294	8128	8103
	-403.3695025	0	-537.8260033	218.4918139	8128	8103
	-470.5977529	-16.8070626	-386.5624399	352.9483147	8128	8103
	-336.1412521	117.6494382	705.8966294	16.8070626	8128	8104
	-100.8423756	117.6494382	453.7906903	-369.7553773	8128	8104
	302.5271269	268.9130017	-1495.828572	-974.809631	8128	8104
	386.5624399	218.4918139	-1294.143821	-1159.68732	8129	8103
	386.5624399	268.9130017	-638.6683789	-907.5813806	8129	8104
	403.3695025	235.2988765	285.7200643	-235.2988765	8129	8104
	336.1412521	235.2988765	1310.950883	521.0189407	8128	8103
	268.9130017	319.3341895	2100.882825	-117.6494382	8129	8103
	336.1412521	336.1412521	1731.127448	-386.5624399	8127	8103
	319.3341895	268.9130017	184.8776886	-958.0025684	8127	8103
	302.5271269	218.4918139	-672.2825042	-1176.494382	8128	8103
	352.9483147	285.7200643	-655.4754416	-1764.741573	8129	8104
	252.1059391	-50.42118781	470.5977529	-1092.459069	8129	8104
	100.8423756	-319.3341895	739.5107546	33.61412521	8129	8104
	-134.4565008	-336.1412521	1260.529695	-50.42118781	8128	8103
	-201.6847512	-352.9483147	1899.198074	-50.42118781	8128	8103
	-369.7553773	-521.0189407	2874.007705	436.9836277	8128	8103
	-369.7553773	-369.7553773	2252.146389	1042.037881	8128	8103
	-487.4048155	-268.9130017	2789.972392	1294.143821	8129	8103
	-504.2118781	-117.6494382	-84.03531302	1479.021509	8128	8103
	-537.8260033	84.03531302	-1546.24976	1428.600321	8128	8103
	-403.3695025	184.8776886	-2016.847512	436.9836277	8128	8103
	-319.3341895	100.8423756	-2369.795827	84.03531302	8129	8103
	-235.2988765	0	-2655.515891	-67.22825042	8128	8103
	-151.2635634	33.61412521	-1563.056822	-168.070626	8128	8103
	0	67.22825042	302.5271269	-218.4918139	8127	8103
	117.6494382	50.42118781	1462.214447	-252.1059391	8128	8103
	184.8776886	16.8070626	2403.409952	-201.6847512	8129	8104
	201.6847512	-100.8423756	2235.339326	-100.8423756	8128	8103
	235.2988765	-67.22825042	168.070626	-369.7553773	8129	8104
	252.1059391	67.22825042	-1428.600321	-537.8260033	8129	8103
	235.2988765	50.42118781	-1932.812199	-554.6330659	8128	8103
	252.1059391	0	-2268.953452	-470.5977529	8128	8103
	268.9130017	33.61412521	-2168.111076	-588.2471911	8129	8103
	487.4048155	50.42118781	-2302.567577	-756.3178172	8128	8103
	554.6330659	67.22825042	-2386.60289	-1042.037881	8127	8103
	638.6683789	134.4565008	-3058.885394	-958.0025684	8127	8103
	739.5107546	302.5271269	-3579.904335	-1781.548636	8127	8103
	890.774318	403.3695025	-3596.711397	-2050.461638	8127	8103
	773.1248798	403.3695025	-2420.217015	-1226.91557	8129	8104
	369.7553773	285.7200643	-285.7200643	-470.5977529	8129	8104
	50.42118781	100.8423756	2336.181702	151.2635634	8128	8103
	-470.5977529	-319.3341895	6739.632104	1798.355699	8129	8104
	-974.809631	-504.2118781	9008.585556	3495.869022	8129	8103
	-1344.565008	-487.4048155	6033.735475	3512.676084	8129	8104
	-1226.91557	-571.4401285	3445.447834	1831.969824	8128	8103
	-823.5460676	-352.9483147	1916.005137	100.8423756	8129	8104
	-470.5977529	-285.7200643	268.9130017	-184.8776886	8129	8104
	-252.1059391	-84.03531302	-907.5813806	-268.9130017	8129	8104
	0	-33.61412521	-1747.934511	33.61412521	8129	8103
	151.2635634	-134.4565008	-2100.882825	67.22825042	8128	8103
	201.6847512	-218.4918139	-2789.972392	-134.4565008	8128	8104
	-33.61412521	-302.5271269	-1479.021509	470.5977529	8128	8103
	-184.8776886	-117.6494382	-1075.652007	1193.301445	8129	8104
	33.61412521	16.8070626	-958.0025684	1210.108507	8128	8103
	134.4565008	117.6494382	-655.4754416	235.2988765	8129	8104
	67.22825042	84.03531302	-621.8613163	-336.1412521	8128	8103
	117.6494382	168.070626	-1378.179134	-722.703692	8129	8104
	369.7553773	336.1412521	-789.9319424	-1310.950883	8128	8103
	705.8966294	537.8260033	-302.5271269	-2319.374639	8128	8103
	1058.844944	655.4754416	-890.774318	-3344.605458	8128	8103
	1109.266132	705.8966294	-3462.254896	-3731.167898	8128	8103
	756.3178172	571.4401285	-2453.83114	-2504.252328	8128	8103
	235.2988765	84.03531302	3932.852649	487.4048155	8129	8104
	-352.9483147	-302.5271269	4739.591654	2958.043018	8129	8103
	-857.1601928	-588.2471911	285.7200643	4521.09984	8128	8103
	-1226.91557	-756.3178172	100.8423756	4016.887962	8128	8102
	-1546.24976	-1109.266132	857.1601928	2554.673516	8128	8103
	-1529.442697	-907.5813806	1327.757946	470.5977529	8128	8103
	-1159.68732	-638.6683789	571.4401285	-268.9130017	8129	8103
	-537.8260033	-436.9836277	-201.6847512	-352.9483147	8128	8103
	-67.22825042	-319.3341895	-168.070626	-184.8776886	8128	8103
	168.070626	-235.2988765	319.3341895	-319.3341895	8129	8104
	352.9483147	-117.6494382	504.2118781	-1109.266132	8128	8102
	386.5624399	-33.61412521	1378.179134	-1176.494382	8129	8104
	336.1412521	-50.42118781	1092.459069	-487.4048155	8129	8103
	302.5271269	100.8423756	151.2635634	-252.1059391	8128	8103
	252.1059391	268.9130017	-840.3531302	-134.4565008	8128	8103
	151.2635634	201.6847512	-1579.863885	151.2635634	8127	8102
	268.9130017	386.5624399	-2554.673516	-420.1765651	8128	8103
	386.5624399	487.4048155	-2621.901766	-1058.844944	8128	8103
	521.0189407	537.8260033	-1764.741573	-1462.214447	8128	8103
	554.6330659	554.6330659	-1781.548636	-1529.442697	8128	8103
	470.5977529	504.2118781	-2302.567577	-1008.423756	8128	8103
	319.3341895	218.4918139	-2134.496951	184.8776886	8128	8103
	201.6847512	184.8776886	352.9483147	991.6166936	8128	8102
	33.61412521	-84.03531302	1394.986196	537.8260033	8128	8103
	-218.4918139	-268.9130017	2184.918139	-201.6847512	8127	8103
	-235.2988765	-218.4918139	4235.379776	-184.8776886	8128	8103
	-252.1059391	-268.9130017	5025.311719	134.4565008	8128	8102
	-319.3341895	-134.4565008	4369.836277	84.03531302	8128	8103
	-487.4048155	-319.3341895	3630.325522	857.1601928	8128	8103
	-571.4401285	-336.1412521	571.4401285	235.2988765	8127	8102
	-302.5271269	-235.2988765	-672.2825042	-319.3341895	8129	8103
	-84.03531302	-84.03531302	-1310.950883	-605.0542537	8127	8103
	134.4565008	0	-2554.673516	-571.4401285	8127	8102
	285.7200643	0	-1848.776886	-285.7200643	8128	8104
	235.2988765	50.42118781	-1394.986196	-168.070626	8127	8103
	33.61412521	168.070626	-840.3531302	268.9130017	8128	8104
	-100.8423756	67.22825042	-924.3884432	336.1412521	8128	8104
	-235.2988765	0	-285.7200643	252.1059391	8128	8103
	-453.7906903	50.42118781	-521.0189407	873.9672554	8128	8103
	-403.3695025	151.2635634	-1092.459069	739.5107546	8128	8103
	-252.1059391	151.2635634	-134.4565008	1058.844944	8128	8103
	-100.8423756	151.2635634	-252.1059391	1327.757946	8128	8104
	168.070626	67.22825042	201.6847512	789.9319424	8127	8103
	369.7553773	16.8070626	84.03531302	-319.3341895	8129	8103
	554.6330659	0	-672.2825042	-941.1955058	8130	8104
	638.6683789	-33.61412521	-756.3178172	-1327.757946	8128	8103
	773.1248798	-16.8070626	134.4565008	-1327.757946	8129	8103
	621.8613163	-50.42118781	-319.3341895	-739.5107546	8128	8103
	436.9836277	-33.61412521	-504.2118781	84.03531302	8128	8104
	537.8260033	-151.2635634	-285.7200643	1176.494382	8128	8103
	436.9836277	-168.070626	1865.583949	1193.301445	8128	8104
	-50.42118781	-218.4918139	3479.061959	504.2118781	8127	8102
	-386.5624399	-218.4918139	-1848.776886	151.2635634	8128	8104
	-537.8260033	-184.8776886	-2857.200643	-201.6847512	8128	8104
	-571.4401285	16.8070626	-1193.301445	67.22825042	8128	8103
	-689.0895668	-84.03531302	50.42118781	352.9483147	8128	8104
	-840.3531302	-319.3341895	655.4754416	436.9836277	8128	8104
	-840.3531302	-168.070626	1798.355699	-403.3695025	8129	8104
	-420.1765651	16.8070626	184.8776886	-504.2118781	8129	8103
	-84.03531302	117.6494382	-823.5460676	-924.3884432	8129	8103
	50.42118781	218.4918139	-739.5107546	-1394.986196	8128	8103
	16.8070626	168.070626	-1176.494382	-1579.863885	8128	8103
	184.8776886	218.4918139	-50.42118781	-1563.056822	8128	8103
	386.5624399	134.4565008	-33.61412521	-1394.986196	8128	8104
	336.1412521	67.22825042	-1243.722633	-571.4401285	8128	8103
	100.8423756	-33.61412521	-268.9130017	655.4754416	8127	8103
	-168.070626	-151.2635634	840.3531302	1260.529695	8128	8104
	-252.1059391	-352.9483147	2285.760514	1378.179134	8128	8104
	-302.5271269	-386.5624399	403.3695025	1294.143821	8128	8103
	-352.9483147	-453.7906903	134.4565008	470.5977529	8129	8104
	-487.4048155	-420.1765651	420.1765651	-33.61412521	8128	8103
	-184.8776886	-268.9130017	-134.4565008	50.42118781	8129	8104
	0	-67.22825042	-386.5624399	117.6494382	8129	8104
	252.1059391	117.6494382	-151.2635634	-50.42118781	8128	8104
	605.0542537	151.2635634	184.8776886	-420.1765651	8128	8103
	722.703692	285.7200643	100.8423756	-991.6166936	8127	8103
	689.0895668	436.9836277	-369.7553773	-1109.266132	8128	8103
	453.7906903	436.9836277	235.2988765	-352.9483147	8127	8103
	100.8423756	201.6847512	-504.2118781	285.7200643	8127	8103
	-117.6494382	84.03531302	-1563.056822	739.5107546	8128	8104
	-504.2118781	-16.8070626	-386.5624399	386.5624399	8127	8102
	-605.0542537	-84.03531302	1697.513323	-285.7200643	8129	8104
	-605.0542537	-100.8423756	2689.130017	-235.2988765	8128	8103
	-369.7553773	-67.22825042	2941.235956	571.4401285	8127	8103
	-134.4565008	84.03531302	857.1601928	151.2635634	8127	8102
	-84.03531302	-16.8070626	924.3884432	134.4565008	8127	8103
	33.61412521	-302.5271269	1378.179134	436.9836277	8128	8102
	84.03531302	-436.9836277	-588.2471911	1126.073194	8128	8103
	-50.42118781	-336.1412521	-1226.91557	1210.108507	8129	8103
	50.42118781	-184.8776886	-1092.459069	336.1412521	8128	8103
	100.8423756	-151.2635634	-1932.812199	-672.2825042	8128	8103
	151.2635634	-100.8423756	-2151.304013	-1058.844944	8129	8104
	100.8423756	-50.42118781	-537.8260033	-655.4754416	8128	8103
	218.4918139	-134.4565008	-151.2635634	689.0895668	8129	8103
	184.8776886	-33.61412521	-857.1601928	1226.91557	8128	8103
	134.4565008	-16.8070626	-1647.092135	1176.494382	8128	8103
	0	84.03531302	-1630.285073	403.3695025	8128	8103
	-134.4565008	201.6847512	-453.7906903	-285.7200643	8127	8103
	-117.6494382	268.9130017	1361.372071	-504.2118781	8127	8103
	117.6494382	235.2988765	2352.988765	-235.2988765	8127	8103
	168.070626	151.2635634	1495.828572	-252.1059391	8128	8103
	134.4565008	117.6494382	-638.6683789	-756.3178172	8128	8104
	201.6847512	151.2635634	-2352.988765	-941.1955058	8128	8103
	319.3341895	218.4918139	-3008.464206	-554.6330659	8128	8102
	470.5977529	151.2635634	-3176.534832	336.1412521	8128	8103
	369.7553773	-33.61412521	-33.61412521	873.9672554	8130	8104
	84.03531302	0	3361.412521	420.1765651	8129	8104
	-201.6847512	-201.6847512	4453.87159	84.03531302	8128	8103
	-336.1412521	-151.2635634	4151.344463	-436.9836277	8128	8103
	-386.5624399	-168.070626	2453.83114	-302.5271269	8128	8103
	-453.7906903	-436.9836277	-268.9130017	-235.2988765	8128	8103
	-537.8260033	-403.3695025	-2504.252328	-991.6166936	8127	8103
	-268.9130017	-134.4565008	-2403.409952	-1176.494382	8128	8104
	-67.22825042	-33.61412521	-1613.47801	-487.4048155	8128	8103
	285.7200643	67.22825042	-756.3178172	285.7200643	8128	8103
	168.070626	-16.8070626	436.9836277	705.8966294	8129	8103
	0	67.22825042	2067.2687	285.7200643	8129	8104
	-168.070626	50.42118781	2016.847512	-487.4048155	8129	8103
	-201.6847512	-33.61412521	470.5977529	-1126.073194	8129	8104
	-33.61412521	-16.8070626	-974.809631	-756.3178172	8128	8103
	-50.42118781	218.4918139	-2184.918139	-1731.127448	8128	8103
	-184.8776886	302.5271269	-3243.763083	-1109.266132	8128	8104
	-84.03531302	302.5271269	-3613.51846	235.2988765	8128	8104
	16.8070626	84.03531302	-3832.010274	1294.143821	8128	8104
	-168.070626	16.8070626	-2806.779455	1260.529695	8128	8104
	-386.5624399	-235.2988765	-1394.986196	386.5624399	8129	8104
	-453.7906903	-487.4048155	504.2118781	-403.3695025	8127	8103
	-504.2118781	-487.4048155	2789.972392	-16.8070626	8128	8103
	-268.9130017	-302.5271269	2453.83114	1058.844944	8128	8104
	-84.03531302	-285.7200643	3226.95602	1260.529695	8128	8103
	84.03531302	-201.6847512	4134.537401	1226.91557	8129	8103
	302.5271269	0	4840.43403	33.61412521	8128	8103
	403.3695025	201.6847512	2067.2687	-756.3178172	8129	8103
	470.5977529	352.9483147	-168.070626	-1277.336758	8129	8104
	453.7906903	352.9483147	-1277.336758	-974.809631	8128	8103
	268.9130017	151.2635634	-890.774318	268.9130017	8128	8103
	84.03531302	67.22825042	-672.2825042	655.4754416	8129	8104
	16.8070626	-151.2635634	50.42118781	958.0025684	8128	8103
	50.42118781	16.8070626	1361.372071	33.61412521	8129	8104
	184.8776886	168.070626	252.1059391	-605.0542537	8129	8103
	134.4565008	252.1059391	-50.42118781	-521.0189407	8129	8104
	302.5271269	201.6847512	-504.2118781	-117.6494382	8128	8104
	336.1412521	33.61412521	-504.2118781	924.3884432	8128	8103
	403.3695025	-168.070626	-655.4754416	1075.652007	8127	8102
	252.1059391	-218.4918139	-1630.285073	184.8776886	8128	8104
	-67.22825042	-117.6494382	-655.4754416	-1361.372071	8128	8104
	-218.4918139	-100.8423756	806.739005	-1294.143821	8128	8103
	-420.1765651	0	840.3531302	134.4565008	8128	8103
	-453.7906903	-33.61412521	1310.950883	1563.056822	8128	8103
	-487.4048155	-151.2635634	-336.1412521	1966.426325	8129	8103
	-302.5271269	-235.2988765	-1260.529695	890.774318	8127	8102
	-84.03531302	-352.9483147	-1546.24976	50.42118781	8127	8103
	-100.8423756	-453.7906903	-1697.513323	-352.9483147	8128	8103
	33.61412521	-336.1412521	-1394.986196	-369.7553773	8127	8102
	50.42118781	-84.03531302	-117.6494382	-168.070626	8127	8103
	-67.22825042	-100.8423756	453.7906903	33.61412521	8128	8103
	-117.6494382	16.8070626	-722.703692	-369.7553773	8128	8103
	33.61412521	16.8070626	-739.5107546	-184.8776886	8127	8102
	-50.42118781	100.8423756	-336.1412521	-806.739005	8127	8103
	50.42118781	168.070626	840.3531302	-739.5107546	8127	8103
	184.8776886	386.5624399	4151.344463	-521.0189407	8127	8102
	201.6847512	336.1412521	3142.920707	16.8070626	8128	8103
	84.03531302	184.8776886	3277.377208	638.6683789	8129	8103
	-50.42118781	-50.42118781	1479.021509	302.5271269	8128	8104
	-235.2988765	-151.2635634	-1109.266132	-621.8613163	8128	8103
	-420.1765651	-352.9483147	-2672.322954	-890.774318	8128	8103
	-369.7553773	-436.9836277	-2840.39358	-369.7553773	8128	8103
	-184.8776886	-369.7553773	-2823.586517	-638.6683789	8128	8103
	67.22825042	-252.1059391	-3630.325522	-924.3884432	8128	8103
	100.8423756	-201.6847512	-2319.374639	-487.4048155	8128	8103
	-151.2635634	-33.61412521	1142.880257	756.3178172	8129	8104
	-436.9836277	-67.22825042	2773.16533	1680.70626	8129	8104
	-352.9483147	16.8070626	1647.092135	1310.950883	8129	8104
	-252.1059391	67.22825042	1226.91557	470.5977529	8128	8103
	33.61412521	268.9130017	806.739005	-352.9483147	8128	8104
	386.5624399	352.9483147	739.5107546	-1142.880257	8128	8104
	605.0542537	403.3695025	252.1059391	-1966.426325	8128	8103
	638.6683789	336.1412521	-1058.844944	-1764.741573	8129	8104
	504.2118781	218.4918139	-1394.986196	-974.809631	8128	8104
	336.1412521	151.2635634	-1109.266132	-352.9483147	8128	8103
	168.070626	168.070626	-285.7200643	537.8260033	8128	8103
	-117.6494382	-67.22825042	605.0542537	1126.073194	8128	8103
	-168.070626	33.61412521	403.3695025	1025.230819	8128	8103
	0	50.42118781	1260.529695	1411.793259	8128	8104
	134.4565008	-33.61412521	1899.198074	1613.47801	8128	8104
	184.8776886	-302.5271269	-285.7200643	1445.407384	8129	8103
	67.22825042	-268.9130017	-302.5271269	-369.7553773	8129	8103
	-100.8423756	-100.8423756	-1865.583949	-1966.426325	8128	8103
	-134.4565008	-117.6494382	-3764.782023	-2285.760514	8128	8103
	151.2635634	-252.1059391	-3008.464206	-941.1955058	8128	8103
	285.7200643	-201.6847512	-2252.146389	453.7906903	8129	8104
	134.4565008	-151.2635634	-1916.005137	1596.670947	8129	8104
	-151.2635634	-268.9130017	-386.5624399	1966.426325	8128	8103
	-588.2471911	-369.7553773	3747.974961	1411.793259	8129	8103
	-941.1955058	-201.6847512	4016.887962	672.2825042	8129	8103
	-840.3531302	-50.42118781	773.1248798	840.3531302	8128	8103
	-756.3178172	-134.4565008	789.9319424	924.3884432	8129	8104
	-773.1248798	-100.8423756	352.9483147	84.03531302	8128	8103
	-571.4401285	16.8070626	403.3695025	-655.4754416	8129	8103
	-285.7200643	168.070626	537.8260033	-857.1601928	8128	8102
	168.070626	218.4918139	873.9672554	-621.8613163	8128	8103
	453.7906903	268.9130017	453.7906903	-739.5107546	8128	8102
	789.9319424	369.7553773	-722.703692	-924.3884432	8127	8102
	756.3178172	319.3341895	-1798.355699	-1025.230819	8127	8103
	537.8260033	218.4918139	-1764.741573	-991.6166936	8127	8102
	319.3341895	100.8423756	-1025.230819	-722.703692	8127	8102
	151.2635634	-218.4918139	-739.5107546	-16.8070626	8127	8103
	0	-319.3341895	2016.847512	487.4048155	8128	8103
	-235.2988765	-403.3695025	3630.325522	436.9836277	8128	8103
	-369.7553773	-453.7906903	3092.499519	50.42118781	8128	8103
	-336.1412521	-319.3341895	2588.287641	-84.03531302	8129	8103
	33.61412521	-168.070626	974.809631	-33.61412521	8129	8104
	201.6847512	0	-268.9130017	0	8128	8103
	352.9483147	151.2635634	-1176.494382	-201.6847512	8128	8102
	470.5977529	252.1059391	-2487.445265	-773.1248798	8127	8103
	554.6330659	336.1412521	-2100.882825	-1142.880257	8127	8103
	537.8260033	319.3341895	-1966.426325	-1327.757946	8128	8103
	352.9483147	168.070626	-1176.494382	-1327.757946	8127	8102
	50.42118781	67.22825042	-436.9836277	-941.1955058	8129	8104
	-453.7906903	50.42118781	1210.108507	-16.8070626	8129	8104
	-655.4754416	-33.61412521	1596.670947	924.3884432	8129	8104
	-689.0895668	16.8070626	1932.812199	890.774318	8128	8103
	-487.4048155	-84.03531302	1479.021509	1378.179134	8128	8103
	-352.9483147	-184.8776886	-705.8966294	1428.600321	8128	8104
	-100.8423756	-67.22825042	-974.809631	201.6847512	8128	8104
	201.6847512	84.03531302	-2050.461638	-1310.950883	8128	8103
	521.0189407	319.3341895	-3109.306582	-2033.654575	8127	8103
	806.739005	252.1059391	-3781.589086	-1630.285073	8129	8104
	806.739005	134.4565008	-1882.391012	-1243.722633	8128	8102
	453.7906903	-134.4565008	1596.670947	436.9836277	8128	8103
	84.03531302	-554.6330659	1613.47801	2117.689888	8129	8104
	-235.2988765	-436.9836277	-151.2635634	3025.271269	8129	8103
	-638.6683789	-537.8260033	924.3884432	3142.920707	8128	8103
	-806.739005	-369.7553773	285.7200643	1916.005137	8128	8103
	-806.739005	-151.2635634	-554.6330659	-50.42118781	8128	8103
	-487.4048155	-67.22825042	100.8423756	-823.5460676	8128	8103
	-67.22825042	218.4918139	2504.252328	-1294.143821	8128	8104
	218.4918139	369.7553773	2151.304013	-1310.950883	8128	8104
	218.4918139	352.9483147	1563.056822	-605.0542537	8128	8103
	-84.03531302	168.070626	1546.24976	235.2988765	8128	8103
	-218.4918139	134.4565008	1025.230819	1058.844944	8128	8103
	-252.1059391	134.4565008	1243.722633	1495.828572	8128	8103
	-134.4565008	-168.070626	1714.320386	2487.445265	8128	8103
	16.8070626	-285.7200643	-84.03531302	2369.795827	8128	8102
	134.4565008	-184.8776886	-1731.127448	840.3531302	8127	8103
	252.1059391	-151.2635634	-1243.722633	-302.5271269	8129	8104
	285.7200643	-218.4918139	-1226.91557	-487.4048155	8128	8103
	235.2988765	-168.070626	-1411.793259	-1025.230819	8128	8103
	84.03531302	-151.2635634	-1781.548636	-1563.056822	8128	8103
	-84.03531302	-218.4918139	-1394.986196	-1310.950883	8128	8103
	-386.5624399	-352.9483147	-588.2471911	-857.1601928	8128	8104
	-285.7200643	-268.9130017	-184.8776886	-621.8613163	8128	8104
	-33.61412521	-84.03531302	-1848.776886	-302.5271269	8128	8104
	117.6494382	33.61412521	-2084.075763	-470.5977529	8128	8104
	67.22825042	67.22825042	-1680.70626	-638.6683789	8128	8103
	50.42118781	117.6494382	-1579.863885	-1042.037881	8128	8102
	-50.42118781	336.1412521	571.4401285	-1025.230819	8129	8104
	-117.6494382	285.7200643	4420.257465	-504.2118781	8128	8103
	-168.070626	285.7200643	2689.130017	-302.5271269	8128	8103
	-201.6847512	100.8423756	1126.073194	-184.8776886	8128	8103
	-117.6494382	117.6494382	1058.844944	268.9130017	8128	8102
	-168.070626	67.22825042	470.5977529	436.9836277	8128	8103
	-33.61412521	117.6494382	-1025.230819	621.8613163	8128	8102
	151.2635634	16.8070626	-1731.127448	-100.8423756	8127	8102
	336.1412521	-16.8070626	-1680.70626	-504.2118781	8128	8102
	386.5624399	33.61412521	-2890.814768	-890.774318	8128	8103
	336.1412521	16.8070626	-2453.83114	-1445.407384	8128	8102
	100.8423756	-184.8776886	1731.127448	-1243.722633	8128	8103
	-151.2635634	-369.7553773	3479.061959	-168.070626	8127	8103
	-134.4565008	0	3109.306582	201.6847512	8127	8103
	-84.03531302	-16.8070626	1899.198074	1042.037881	8127	8103
	-84.03531302	-168.070626	1697.513323	2184.918139	8128	8103
	-168.070626	-420.1765651	890.774318	1882.391012	8128	8103
	-285.7200643	-268.9130017	840.3531302	789.9319424	8129	8103
	-268.9130017	-84.03531302	1327.757946	151.2635634	8129	8104
	-84.03531302	151.2635634	2067.2687	-235.2988765	8128	8104
	201.6847512	302.5271269	2201.725201	-554.6330659	8128	8104
	504.2118781	369.7553773	-235.2988765	-1025.230819	8128	8103
	873.9672554	571.4401285	-2554.673516	-1966.426325	8128	8103
	1126.073194	689.0895668	-4554.713966	-2705.937079	8128	8103
	1479.021509	705.8966294	-7227.03692	-2974.850081	8128	8104
	1697.513323	521.0189407	-8134.6183	-3210.148957	8130	8104
	1277.336758	352.9483147	-3613.51846	-2857.200643	8129	8103
	521.0189407	84.03531302	4487.485715	-1462.214447	8129	8103
	-420.1765651	-201.6847512	5916.086037	1176.494382	8127	8103
	-1361.372071	-705.8966294	2705.937079	4386.64334	8129	8103
	-1747.934511	-991.6166936	2437.024078	6184.999038	8129	8104
	-2252.146389	-1445.407384	722.703692	6521.14029	8128	8104
	-2453.83114	-1361.372071	554.6330659	4420.257465	8128	8103
	-1932.812199	-1142.880257	-268.9130017	2722.744142	8129	8104
	-1294.143821	-571.4401285	-369.7553773	1092.459069	8128	8103
	-705.8966294	-285.7200643	722.703692	-117.6494382	8128	8103
	-252.1059391	-134.4565008	2420.217015	-453.7906903	8128	8103
	369.7553773	67.22825042	1025.230819	-403.3695025	8128	8104
	958.0025684	420.1765651	453.7906903	-705.8966294	8128	8103
	1042.037881	571.4401285	-705.8966294	-1025.230819	8128	8103
	941.1955058	638.6683789	-1747.934511	-1344.565008	8128	8104
	672.2825042	504.2118781	-1563.056822	-1310.950883	8128	8103
	218.4918139	386.5624399	-890.774318	-974.809631	8128	8103
	-168.070626	252.1059391	-974.809631	-201.6847512	8129	8104
	-605.0542537	-117.6494382	-1226.91557	-117.6494382	8128	8103
	-672.2825042	-151.2635634	-1176.494382	-907.5813806	8128	8104
	-436.9836277	-33.61412521	-470.5977529	-1126.073194	8128	8103
	-184.8776886	33.61412521	352.9483147	-672.2825042	8128	8103
	100.8423756	50.42118781	1075.652007	-621.8613163	8129	8103
	453.7906903	100.8423756	689.0895668	-840.3531302	8128	8103
	739.5107546	134.4565008	-823.5460676	-857.1601928	8128	8103
	789.9319424	67.22825042	-1092.459069	-873.9672554	8128	8103
	739.5107546	100.8423756	-1193.301445	-1142.880257	8128	8103
	537.8260033	184.8776886	-873.9672554	-1176.494382	8128	8103
	218.4918139	201.6847512	554.6330659	-672.2825042	8129	8103
	117.6494382	0	2235.339326	-33.61412521	8128	8102
	33.61412521	-218.4918139	2487.445265	218.4918139	8129	8103
	-33.61412521	-100.8423756	672.2825042	16.8070626	8128	8103
	-134.4565008	84.03531302	-1042.037881	184.8776886	8127	8103
	0	-16.8070626	-1008.423756	403.3695025	8127	8103
	100.8423756	-50.42118781	-1193.301445	84.03531302	8127	8103
	33.61412521	50.42118781	-1899.198074	420.1765651	8127	8104
	151.2635634	50.42118781	-655.4754416	319.3341895	8127	8102
	302.5271269	33.61412521	-504.2118781	-168.070626	8127	8103
	218.4918139	-67.22825042	-201.6847512	-369.7553773	8128	8103
	16.8070626	-67.22825042	1680.70626	-285.7200643	8129	8103
	-84.03531302	67.22825042	4218.572714	-67.22825042	8128	8103
	-151.2635634	33.61412521	5327.838845	537.8260033	8128	8103
	-252.1059391	67.22825042	3092.499519	1109.266132	8127	8103
	-369.7553773	33.61412521	722.703692	806.739005	8128	8103
	-487.4048155	-151.2635634	-285.7200643	235.2988765	8129	8103
	-554.6330659	-352.9483147	-336.1412521	252.1059391	8128	8103
	-319.3341895	-386.5624399	-1109.266132	134.4565008	8128	8103
	-218.4918139	-319.3341895	-2184.918139	-84.03531302	8129	8103
	-151.2635634	-218.4918139	-2874.007705	-218.4918139	8128	8103
	-33.61412521	-252.1059391	-3462.254896	-218.4918139	8128	8103
	184.8776886	-218.4918139	-4218.572714	-470.5977529	8128	8104
	537.8260033	16.8070626	-5781.629536	-1176.494382	8128	8102
	739.5107546	151.2635634	-4773.20578	-1075.652007	8127	8103
	655.4754416	252.1059391	-2386.60289	-268.9130017	8128	8103
	436.9836277	184.8776886	-1243.722633	655.4754416	8128	8104
	0	-16.8070626	-756.3178172	2117.689888	8128	8103
	-504.2118781	-50.42118781	2941.235956	2504.252328	8128	8103
	-621.8613163	-67.22825042	5529.523597	1563.056822	8128	8103
	-840.3531302	-100.8423756	5260.610595	235.2988765	8128	8103
	-739.5107546	67.22825042	1899.198074	-857.1601928	8128	8103
	-436.9836277	285.7200643	2806.779455	-1294.143821	8128	8104
	33.61412521	252.1059391	3579.904335	-1226.91557	8128	8104
	638.6683789	235.2988765	991.6166936	-873.9672554	8129	8104
	621.8613163	0	-453.7906903	-1109.266132	8128	8103
	403.3695025	-151.2635634	-705.8966294	-1764.741573	8129	8104
	134.4565008	-184.8776886	1680.70626	-1092.459069	8128	8103
	-319.3341895	-521.0189407	1747.934511	722.703692	8128	8103
	-588.2471911	-638.6683789	823.5460676	2033.654575	8127	8103
	-739.5107546	-588.2471911	151.2635634	2571.480578	8129	8104
	-773.1248798	-521.0189407	-588.2471911	2117.689888	8128	8103
	-722.703692	-252.1059391	-1176.494382	689.0895668	8127	8103
	-268.9130017	-33.61412521	-1546.24976	117.6494382	8128	8104
	-117.6494382	16.8070626	-958.0025684	-268.9130017	8127	8103
	67.22825042	134.4565008	-1445.407384	-672.2825042	8128	8103
	218.4918139	285.7200643	-621.8613163	-1243.722633	8128	8103
	554.6330659	470.5977529	-302.5271269	-1142.880257	8128	8102
	806.739005	537.8260033	-201.6847512	-1126.073194	8127	8102
	789.9319424	487.4048155	1226.91557	-1277.336758	8127	8103
	672.2825042	403.3695025	1092.459069	-958.0025684	8127	8103
	504.2118781	352.9483147	420.1765651	-521.0189407	8126	8102
	184.8776886	151.2635634	756.3178172	487.4048155	8127	8102
	-100.8423756	-151.2635634	285.7200643	1176.494382	8128	8102
	-352.9483147	-420.1765651	-151.2635634	1680.70626	8127	8102
	-386.5624399	-403.3695025	504.2118781	1277.336758	8127	8103
	-336.1412521	-352.9483147	-420.1765651	504.2118781	8128	8102
	-268.9130017	-285.7200643	-823.5460676	-16.8070626	8127	8102
	-168.070626	-218.4918139	-1243.722633	-420.1765651	8128	8102
	-84.03531302	-151.2635634	-1462.214447	-672.2825042	8129	8103
	168.070626	-16.8070626	84.03531302	-756.3178172	8129	8103
	420.1765651	100.8423756	2672.322954	-890.774318	8128	8102
	588.2471911	134.4565008	4050.502088	-1277.336758	8128	8102
	672.2825042	100.8423756	1025.230819	-1663.899198	8128	8102
	504.2118781	168.070626	-1714.320386	-1142.880257	8128	8102
	218.4918139	252.1059391	-554.6330659	-689.0895668	8128	8103
	-50.42118781	369.7553773	-1226.91557	168.070626	8128	8104
	-302.5271269	302.5271269	-4756.398717	1277.336758	8127	8103
	-537.8260033	67.22825042	-3832.010274	1731.127448	8128	8103
	-722.703692	-151.2635634	-2571.480578	1949.619262	8128	8104
	-705.8966294	-252.1059391	-2874.007705	1193.301445	8128	8104
	-470.5977529	-201.6847512	-2756.358267	453.7906903	8128	8103
	-319.3341895	-184.8776886	-2100.882825	-134.4565008	8128	8103
	0	-218.4918139	-1193.301445	-403.3695025	8128	8103
	218.4918139	-100.8423756	-588.2471911	-1512.635634	8128	8103
	571.4401285	50.42118781	403.3695025	-2470.638203	8128	8104
	773.1248798	16.8070626	436.9836277	-2117.689888	8128	8104
	605.0542537	-50.42118781	890.774318	-857.1601928	8127	8103
	285.7200643	-33.61412521	1260.529695	487.4048155	8128	8103
	-50.42118781	-84.03531302	1899.198074	2084.075763	8129	8104
	-386.5624399	-201.6847512	1294.143821	2756.358267	8128	8103
	-588.2471911	-168.070626	2352.988765	2151.304013	8128	8103
	-605.0542537	-16.8070626	4050.502088	67.22825042	8128	8103
	-336.1412521	84.03531302	1159.68732	-268.9130017	8128	8104
	-151.2635634	-134.4565008	-201.6847512	285.7200643	8128	8104
	-252.1059391	-403.3695025	2067.2687	235.2988765	8128	8104
	-184.8776886	-302.5271269	2705.937079	151.2635634	8129	8104
	-134.4565008	-201.6847512	1529.442697	50.42118781	8128	8103
	-134.4565008	-84.03531302	1058.844944	-924.3884432	8129	8104
	-33.61412521	84.03531302	-168.070626	-1899.198074	8129	8104
	218.4918139	319.3341895	-1512.635634	-1546.24976	8128	8103
	470.5977529	605.0542537	-1983.233387	-1109.266132	8128	8104
	554.6330659	588.2471911	-2268.953452	-1075.652007	8128	8103
	453.7906903	302.5271269	-2487.445265	-756.3178172	8128	8103
	319.3341895	50.42118781	-554.6330659	873.9672554	8129	8103
	50.42118781	-84.03531302	3210.148957	1815.162761	8128	8103
	-386.5624399	-252.1059391	1058.844944	1529.442697	8128	8103
	-487.4048155	-487.4048155	302.5271269	1042.037881	8128	8103
	-705.8966294	-537.8260033	2184.918139	789.9319424	8127	8103
	-605.0542537	-537.8260033	3731.167898	537.8260033	8127	8103
	-504.2118781	-436.9836277	2537.866453	84.03531302	8128	8103
	-319.3341895	-235.2988765	-84.03531302	-386.5624399	8127	8103
	-184.8776886	16.8070626	-1344.565008	-705.8966294	8128	8103
	33.61412521	50.42118781	-2655.515891	-504.2118781	8129	8104
	100.8423756	151.2635634	-3092.499519	-588.2471911	8129	8103
	168.070626	168.070626	-2621.901766	-302.5271269	8129	8103
	168.070626	33.61412521	-2050.461638	-184.8776886	8129	8104
	0	0	-1394.986196	-487.4048155	8129	8104
	-100.8423756	168.070626	521.0189407	-537.8260033	8129	8104
	-50.42118781	134.4565008	705.8966294	-436.9836277	8128	8103
	0	151.2635634	-184.8776886	33.61412521	8128	8103
	0	268.9130017	168.070626	33.61412521	8129	8103
	117.6494382	84.03531302	773.1248798	336.1412521	8128	8103
	218.4918139	84.03531302	1327.757946	-268.9130017	8128	8103
	420.1765651	100.8423756	840.3531302	-588.2471911	8128	8103
	571.4401285	235.2988765	-739.5107546	-722.703692	8127	8102
	571.4401285	285.7200643	-1781.548636	-907.5813806	8128	8103
	336.1412521	-16.8070626	-1042.037881	218.4918139	8128	8102
	67.22825042	-268.9130017	386.5624399	840.3531302	8129	8103
	-201.6847512	-218.4918139	-1126.073194	621.8613163	8128	8103
	-336.1412521	-151.2635634	-722.703692	470.5977529	8128	8104
	-319.3341895	-420.1765651	352.9483147	1394.986196	8128	8102
	-235.2988765	-403.3695025	-672.2825042	806.739005	8127	8102
	-33.61412521	-134.4565008	-806.739005	-252.1059391	8128	8104
	50.42118781	-16.8070626	-50.42118781	-621.8613163	8128	8103
	201.6847512	33.61412521	-789.9319424	-705.8966294	8127	8102
	285.7200643	285.7200643	-100.8423756	-537.8260033	8127	8103
	252.1059391	302.5271269	1411.793259	-352.9483147	8128	8103
	134.4565008	235.2988765	907.5813806	-285.7200643	8126	8102
	33.61412521	201.6847512	2621.901766	16.8070626	8127	8103
	-168.070626	-50.42118781	3613.51846	924.3884432	8128	8102
	-117.6494382	-117.6494382	2084.075763	1512.635634	8128	8103
	-235.2988765	-235.2988765	1394.986196	1462.214447	8128	8102
	-403.3695025	-235.2988765	2352.988765	521.0189407	8129	8103
	-487.4048155	-201.6847512	638.6683789	-420.1765651	8128	8103
	-403.3695025	-50.42118781	-739.5107546	-1798.355699	8127	8102
	-50.42118781	-67.22825042	-1630.285073	-1579.863885	8128	8103
	151.2635634	-252.1059391	-2151.304013	-605.0542537	8127	8103
	184.8776886	-84.03531302	-2487.445265	-621.8613163	8127	8102
	0	-16.8070626	-2050.461638	184.8776886	8128	8103
	-84.03531302	-151.2635634	571.4401285	958.0025684	8128	8103
	-252.1059391	-352.9483147	1462.214447	1277.336758	8128	8104
	-403.3695025	-184.8776886	1731.127448	857.1601928	8128	8104
	-252.1059391	0	1445.407384	571.4401285	8127	8103
	-117.6494382	33.61412521	436.9836277	50.42118781	8128	8104
	84.03531302	84.03531302	-756.3178172	-302.5271269	8128	8103
	285.7200643	33.61412521	-2000.04045	-840.3531302	8127	8103
	672.2825042	268.9130017	-4134.537401	-1361.372071	8127	8103
	739.5107546	403.3695025	-3479.061959	-1613.47801	8129	8105
	638.6683789	302.5271269	-2033.654575	-1159.68732	8129	8104
	420.1765651	168.070626	-857.1601928	-487.4048155	8129	8104
	16.8070626	67.22825042	84.03531302	470.5977529	8129	8103
	-386.5624399	0	319.3341895	1260.529695	8129	8103
	-403.3695025	-134.4565008	201.6847512	1512.635634	8129	8103
	-403.3695025	-218.4918139	504.2118781	1479.021509	8129	8104
	-285.7200643	-201.6847512	2386.60289	873.9672554	8129	8104
	-369.7553773	-352.9483147	5176.575282	168.070626	8128	8103
	-453.7906903	-252.1059391	6201.806101	-453.7906903	8128	8103
	-218.4918139	-168.070626	3142.920707	-117.6494382	8128	8103
	50.42118781	-117.6494382	789.9319424	-184.8776886	8127	8103
	319.3341895	67.22825042	-2268.953452	-1462.214447	8129	8104
	588.2471911	151.2635634	-4437.064527	-2252.146389	8128	8104
	823.5460676	336.1412521	-5579.944784	-2184.918139	8128	8103
	571.4401285	336.1412521	-6689.210916	-1495.828572	8129	8104
	84.03531302	0	-4924.469343	806.739005	8128	8103
	-369.7553773	-117.6494382	-2672.322954	1764.741573	8127	8103
	-621.8613163	-319.3341895	-1277.336758	2773.16533	8127	8103
	-655.4754416	-184.8776886	-958.0025684	2033.654575	8127	8103
	-537.8260033	-84.03531302	-1210.108507	924.3884432	8128	8103
	-369.7553773	84.03531302	-1260.529695	-756.3178172	8129	8103
	-134.4565008	235.2988765	-1126.073194	-1848.776886	8128	8103
	201.6847512	319.3341895	16.8070626	-1731.127448	8128	8104
	184.8776886	50.42118781	4739.591654	-1176.494382	8128	8103
	218.4918139	67.22825042	6084.156663	-453.7906903	8127	8103
	201.6847512	-67.22825042	5916.086037	453.7906903	8128	8103
	16.8070626	-319.3341895	4336.222152	1630.285073	8128	8103
	-235.2988765	-605.0542537	3932.852649	1647.092135	8128	8103
	-386.5624399	-554.6330659	3731.167898	672.2825042	8129	8103
	-420.1765651	-521.0189407	2605.094704	84.03531302	8129	8103
